Raman Shift,"2044_D_siarczyn_sodu_5,5mM_9s_1acc_30%_3","2044_D_siarczyn_sodu_5,5mM_9s_1acc_30%_4","2044_G_siarczyn_sodu_5,5mM_9s_1acc_30%","2044_G_siarczyn_sodu_5,5mM_9s_1acc_30%_2","2044_G_siarczyn_sodu_5,5mM_9s_1acc_30%_3","2045_D_siarczyn_sodu_5,5mM_9s_1acc_30%","2045_D_siarczyn_sodu_5,5mM_9s_1acc_30%_2","2045_D_siarczyn_sodu_5,5mM_9s_1acc_30%_3","2045_G_siarczyn_sodu_5,5mM_9s_1acc_30%","2045_G_siarczyn_sodu_5,5mM_9s_1acc_30%_2","2041_D_siarczyn_sodu_5,5mM_9s_1acc_30%","2041_D_siarczyn_sodu_5,5mM_9s_1acc_30%_2","2041_G_siarczyn_sodu_5,5mM_9s_1acc_30%","2041_G_siarczyn_sodu_5,5mM_9s_1acc_30%_2","2044_D_siarczyn_sodu_5,5mM_9s_1acc_30%_2"
494.28,24264.0,19202.0,19938.0,21691.0,17971.0,19999.0,19653.0,22272.0,21057.0,22571.0,11389.0,14643.0,19975.0,16390.0,20459.0
496.53,23882.0,19303.0,19560.0,21744.0,17940.0,19828.0,19730.0,22601.0,21284.0,22362.0,11137.0,14449.0,19391.0,16042.0,20226.0
498.78,23848.0,19179.0,19719.0,21431.0,17981.0,19997.0,19758.0,22588.0,21257.0,22669.0,11350.0,14152.0,19511.0,16249.0,20696.0
501.02,23832.0,19126.0,19356.0,21235.0,17633.0,20072.0,19190.0,21916.0,20932.0,22118.0,11000.0,13631.0,19011.0,16213.0,20093.0
503.27,23433.0,18699.0,19125.0,21269.0,17303.0,19680.0,19321.0,21714.0,21107.0,22093.0,11147.0,14064.0,18866.0,16238.0,20391.0
505.51,23001.0,18297.0,19011.0,21054.0,17545.0,19118.0,18808.0,21447.0,20660.0,21855.0,11494.0,13873.0,18961.0,16128.0,19599.0
507.76,22964.0,18377.0,19352.0,21117.0,17431.0,19566.0,19042.0,21588.0,20961.0,22009.0,10875.0,13653.0,18884.0,15742.0,19432.0
510.0,23214.0,18535.0,19539.0,21457.0,17719.0,19300.0,19045.0,21786.0,20735.0,21755.0,10829.0,13844.0,18505.0,16126.0,19586.0
512.24,22976.0,18017.0,18962.0,20587.0,16955.0,18939.0,18514.0,21171.0,20534.0,21289.0,10963.0,13614.0,18437.0,15514.0,19259.0
514.48,23007.0,18485.0,19081.0,20726.0,17254.0,19379.0,18442.0,21395.0,20880.0,21410.0,10626.0,13322.0,18494.0,15779.0,19660.0
516.72,22839.0,18433.0,19102.0,20773.0,17205.0,19260.0,18795.0,21478.0,20589.0,21409.0,10806.0,13663.0,19097.0,15609.0,19538.0
518.96,22624.0,18353.0,18844.0,20891.0,17027.0,19416.0,18838.0,21376.0,19975.0,21811.0,11001.0,13935.0,18391.0,15747.0,19453.0
521.2,23011.0,18593.0,19043.0,20774.0,17200.0,19346.0,18803.0,21619.0,20400.0,21580.0,10800.0,13732.0,18856.0,15581.0,19799.0
523.44,22990.0,18312.0,19124.0,20817.0,17099.0,19715.0,18798.0,21734.0,20139.0,21643.0,10865.0,13896.0,19155.0,15717.0,19588.0
525.67,23672.0,18704.0,18702.0,20427.0,17129.0,19470.0,18500.0,21767.0,20072.0,21913.0,10522.0,13743.0,18653.0,15880.0,19452.0
527.91,23537.0,19122.0,18826.0,20882.0,17061.0,19024.0,18456.0,21125.0,20275.0,21955.0,10373.0,13605.0,18873.0,15501.0,19358.0
530.14,24197.0,20001.0,19016.0,20305.0,16715.0,18888.0,18505.0,21296.0,20286.0,22057.0,10836.0,13470.0,18362.0,15119.0,18573.0
532.37,23848.0,19022.0,18886.0,20732.0,17060.0,19259.0,18730.0,21209.0,20494.0,21745.0,10578.0,13512.0,18560.0,15417.0,19398.0
534.61,22732.0,17919.0,18797.0,20800.0,17007.0,18943.0,18594.0,21156.0,20000.0,21642.0,10555.0,13202.0,18506.0,14993.0,18875.0
536.84,23204.0,18027.0,18869.0,20601.0,16745.0,19118.0,18581.0,21378.0,20338.0,21811.0,10437.0,13445.0,18320.0,15495.0,18887.0
539.07,22993.0,17883.0,18674.0,20352.0,16856.0,19058.0,18297.0,21414.0,20109.0,21828.0,10356.0,13399.0,18451.0,15022.0,18600.0
541.3,23078.0,17644.0,18642.0,20715.0,16613.0,19192.0,18085.0,21357.0,20092.0,21747.0,10819.0,13755.0,18504.0,15308.0,19122.0
543.52,23130.0,18618.0,19091.0,20644.0,16983.0,19052.0,18799.0,22119.0,20477.0,22368.0,10937.0,13429.0,18260.0,15631.0,19019.0
545.75,22926.0,18155.0,18449.0,20351.0,16789.0,18735.0,18544.0,21450.0,20476.0,22079.0,10428.0,13362.0,18295.0,15167.0,18945.0
547.98,23068.0,18228.0,19056.0,20649.0,16808.0,19024.0,18789.0,22296.0,20519.0,22570.0,10602.0,13345.0,18417.0,15312.0,19247.0
550.2,22762.0,18303.0,19182.0,20935.0,16957.0,19189.0,18602.0,21858.0,20690.0,23109.0,10699.0,13554.0,18758.0,15598.0,19286.0
552.43,23148.0,18443.0,19370.0,21285.0,17382.0,19377.0,18994.0,22053.0,20910.0,23035.0,10760.0,13777.0,18590.0,15750.0,19394.0
554.65,23400.0,18124.0,19469.0,21218.0,17599.0,19969.0,19008.0,22110.0,21242.0,23291.0,10365.0,13734.0,18823.0,15364.0,19715.0
556.87,22947.0,17955.0,19387.0,20789.0,17281.0,18846.0,18527.0,21811.0,20930.0,22623.0,10674.0,13380.0,18289.0,15220.0,19264.0
559.1,22631.0,18070.0,18918.0,21036.0,16889.0,19479.0,18799.0,22233.0,20765.0,22621.0,10469.0,13775.0,18560.0,15503.0,19523.0
561.32,22132.0,17751.0,19103.0,20562.0,17525.0,18859.0,18285.0,21496.0,20372.0,22417.0,10807.0,13698.0,18069.0,15447.0,19540.0
563.54,22361.0,18133.0,19523.0,21090.0,17270.0,19178.0,18385.0,21910.0,20956.0,22684.0,10813.0,14046.0,18083.0,15578.0,19425.0
565.75,22074.0,18201.0,18532.0,20469.0,17133.0,19296.0,18378.0,21608.0,20703.0,22355.0,10326.0,13906.0,18483.0,15537.0,19177.0
567.97,21864.0,17492.0,18465.0,20304.0,16756.0,18250.0,18121.0,21225.0,19963.0,21734.0,10402.0,13262.0,17874.0,15003.0,18784.0
570.19,22499.0,18180.0,18977.0,21121.0,17325.0,19351.0,19237.0,22051.0,20640.0,22411.0,10681.0,13662.0,18473.0,15240.0,19551.0
572.4,22808.0,18014.0,18700.0,20836.0,17293.0,19011.0,18720.0,22130.0,20213.0,22261.0,10485.0,13572.0,18539.0,15195.0,19059.0
574.62,22366.0,17993.0,18641.0,20995.0,17363.0,19197.0,18394.0,21551.0,20415.0,21861.0,10343.0,13632.0,18480.0,15310.0,19221.0
576.83,21985.0,17949.0,18437.0,20931.0,17107.0,19057.0,18178.0,21707.0,20519.0,21830.0,10503.0,13482.0,18135.0,15210.0,19069.0
579.04,22121.0,18293.0,18359.0,20532.0,17095.0,19004.0,18295.0,21245.0,20362.0,21605.0,10521.0,13654.0,18290.0,15511.0,19176.0
581.26,22812.0,18288.0,18581.0,20787.0,17094.0,18915.0,18799.0,21610.0,19996.0,21545.0,10536.0,13739.0,18578.0,15479.0,19196.0
583.47,22360.0,17979.0,18043.0,20687.0,17071.0,18848.0,18280.0,21005.0,19721.0,21241.0,10503.0,13434.0,18456.0,14885.0,18885.0
585.68,22249.0,17927.0,18193.0,20298.0,17000.0,19170.0,18186.0,21194.0,19690.0,21051.0,10619.0,13437.0,18161.0,15312.0,18714.0
587.89,22138.0,18037.0,18009.0,20213.0,17131.0,18951.0,18220.0,20968.0,19576.0,20941.0,10666.0,13555.0,18125.0,15611.0,18759.0
590.09,22522.0,17753.0,18221.0,20480.0,16773.0,18852.0,18124.0,20832.0,19598.0,20969.0,10560.0,13261.0,17718.0,15274.0,18720.0
592.3,22408.0,17741.0,18039.0,20423.0,16835.0,18671.0,18014.0,21001.0,19341.0,21001.0,10619.0,13072.0,18209.0,14971.0,18871.0
594.51,22952.0,17863.0,18263.0,20275.0,16649.0,19044.0,17869.0,20869.0,19981.0,20657.0,10353.0,13669.0,18417.0,15721.0,18807.0
596.71,22434.0,17796.0,18082.0,20042.0,16934.0,18253.0,17748.0,20492.0,19290.0,20474.0,10345.0,12975.0,18234.0,15577.0,18622.0
598.92,22729.0,18008.0,18632.0,20698.0,17314.0,18678.0,18091.0,21051.0,19371.0,21164.0,10456.0,13162.0,17996.0,15528.0,19074.0
601.12,22216.0,17727.0,18754.0,20533.0,17145.0,18498.0,17797.0,20938.0,19254.0,20852.0,10085.0,13070.0,18303.0,15048.0,18629.0
603.32,21887.0,17520.0,18660.0,20300.0,16790.0,18270.0,17804.0,20790.0,18776.0,20376.0,10012.0,13000.0,18092.0,15129.0,18464.0
605.52,22273.0,17333.0,18420.0,20020.0,16769.0,18106.0,17706.0,20319.0,19085.0,20348.0,10423.0,12818.0,18078.0,15174.0,18651.0
607.72,22330.0,17661.0,18117.0,20041.0,16899.0,18313.0,17942.0,20361.0,19290.0,20162.0,10121.0,12993.0,17963.0,14965.0,18302.0
609.92,22155.0,17327.0,18158.0,20137.0,16546.0,18520.0,17817.0,20514.0,18818.0,20449.0,10112.0,13073.0,18038.0,15032.0,18748.0
612.12,22200.0,17785.0,18044.0,20216.0,16996.0,18134.0,17632.0,20180.0,19021.0,20510.0,10192.0,12748.0,18065.0,15063.0,18347.0
614.32,21630.0,17255.0,17491.0,19765.0,16391.0,17998.0,17338.0,20021.0,19155.0,19619.0,10124.0,13027.0,18074.0,14727.0,18186.0
616.51,21582.0,16839.0,17611.0,19340.0,16289.0,17968.0,17093.0,20009.0,18094.0,19243.0,9904.0,12820.0,17413.0,14298.0,18060.0
618.71,21464.0,16970.0,17797.0,19551.0,16389.0,17882.0,17152.0,19900.0,18404.0,19547.0,10228.0,12508.0,17260.0,14546.0,18132.0
620.9,21340.0,16842.0,17207.0,18984.0,15983.0,17687.0,16640.0,19651.0,18096.0,19140.0,9993.0,12723.0,17259.0,14356.0,17854.0
623.1,20884.0,17338.0,17503.0,18832.0,15784.0,17676.0,16849.0,19893.0,18210.0,19271.0,9978.0,12743.0,17541.0,14352.0,17839.0
625.29,21140.0,16799.0,17263.0,19215.0,15931.0,17658.0,16772.0,19895.0,18134.0,19237.0,9348.0,13016.0,17263.0,14518.0,17603.0
627.48,20998.0,16320.0,17121.0,18878.0,15758.0,17623.0,16528.0,19732.0,18169.0,18822.0,9657.0,12884.0,17455.0,14188.0,17579.0
629.67,20492.0,16754.0,17114.0,18579.0,15737.0,17486.0,16859.0,19354.0,17971.0,18571.0,9759.0,12691.0,16962.0,13878.0,17127.0
631.86,20750.0,16167.0,17151.0,18935.0,15640.0,17273.0,16508.0,19546.0,17562.0,18659.0,9415.0,12370.0,17057.0,14123.0,17240.0
634.05,21109.0,17185.0,17108.0,18860.0,15839.0,16901.0,15977.0,18786.0,17489.0,18983.0,9193.0,12213.0,17278.0,14131.0,17539.0
636.24,21132.0,17243.0,16811.0,18765.0,15567.0,17342.0,16712.0,19137.0,17094.0,18481.0,9588.0,12404.0,16892.0,14169.0,17110.0
638.43,21026.0,17870.0,16840.0,18433.0,15386.0,16588.0,16085.0,18821.0,16899.0,18322.0,9194.0,12408.0,16420.0,13583.0,16785.0
640.61,20727.0,16555.0,16352.0,18797.0,15255.0,16833.0,15746.0,18544.0,17225.0,18318.0,9314.0,12246.0,16990.0,13560.0,16712.0
642.8,19946.0,15733.0,16209.0,18036.0,14615.0,16704.0,15738.0,18329.0,17110.0,17825.0,9089.0,11710.0,16568.0,13383.0,16999.0
644.98,19901.0,15432.0,16614.0,18107.0,14905.0,16686.0,16284.0,18672.0,17260.0,17844.0,9242.0,11629.0,17188.0,13313.0,17032.0
647.17,19073.0,15458.0,15826.0,17970.0,14569.0,16303.0,15788.0,18668.0,16727.0,17579.0,9517.0,12036.0,16134.0,13369.0,16460.0
649.35,19376.0,15574.0,16069.0,18345.0,14741.0,16864.0,15714.0,18670.0,17038.0,18029.0,9100.0,12000.0,16481.0,13122.0,16976.0
651.53,19360.0,15532.0,16233.0,18105.0,14887.0,16432.0,15662.0,18725.0,16586.0,17895.0,8998.0,11440.0,16684.0,13164.0,17005.0
653.71,18577.0,15251.0,15870.0,17750.0,14493.0,16205.0,15686.0,18461.0,16676.0,17306.0,9097.0,11368.0,15796.0,13015.0,16813.0
655.89,18436.0,15064.0,15831.0,17806.0,14623.0,16025.0,15429.0,18322.0,16313.0,17327.0,8815.0,11603.0,16107.0,13184.0,16472.0
658.07,19171.0,15340.0,15771.0,18293.0,14902.0,16019.0,15520.0,18853.0,16594.0,17569.0,8871.0,11720.0,16548.0,13293.0,16676.0
660.24,19381.0,15767.0,15976.0,18032.0,14472.0,16359.0,15609.0,19026.0,16469.0,17685.0,9408.0,11923.0,16830.0,13645.0,16401.0
662.42,18759.0,15647.0,15951.0,17827.0,14930.0,15869.0,15463.0,18490.0,16278.0,17609.0,8937.0,11593.0,16529.0,13061.0,16044.0
664.6,19250.0,16249.0,15843.0,17589.0,14493.0,16348.0,15885.0,18813.0,16308.0,17614.0,9110.0,11701.0,16565.0,13282.0,16011.0
666.77,18912.0,15627.0,15825.0,18145.0,14419.0,16396.0,15582.0,19024.0,16581.0,17581.0,8782.0,11589.0,16469.0,13154.0,16020.0
668.95,18819.0,15628.0,16129.0,18223.0,14531.0,16444.0,15364.0,18900.0,16352.0,17477.0,8875.0,11732.0,16263.0,13300.0,15928.0
671.12,19132.0,15391.0,16391.0,18221.0,14933.0,16506.0,16015.0,18870.0,16755.0,17767.0,9280.0,11817.0,16866.0,13420.0,16325.0
673.29,19026.0,15586.0,16329.0,18311.0,14235.0,16183.0,15770.0,18584.0,16832.0,17747.0,9034.0,12000.0,16583.0,13429.0,16413.0
675.46,19257.0,15636.0,16573.0,18145.0,14543.0,16192.0,15383.0,18743.0,16269.0,17541.0,9128.0,11527.0,16053.0,13230.0,15923.0
677.63,18944.0,15319.0,16009.0,17959.0,14289.0,16009.0,15509.0,18561.0,16257.0,17546.0,8899.0,12238.0,16595.0,13234.0,16146.0
679.8,19303.0,15805.0,16196.0,18525.0,14552.0,15915.0,15760.0,18536.0,16405.0,17922.0,9180.0,11566.0,16579.0,13511.0,16306.0
681.97,19082.0,15729.0,16353.0,18347.0,14581.0,16060.0,15461.0,18321.0,16565.0,17555.0,9031.0,11812.0,16314.0,13209.0,15871.0
684.14,19185.0,15789.0,16394.0,18572.0,14610.0,16220.0,15328.0,18479.0,16043.0,17555.0,9050.0,11789.0,16592.0,13167.0,16203.0
686.3,19631.0,16846.0,15899.0,18081.0,14193.0,15798.0,15315.0,18192.0,16052.0,17835.0,8882.0,11478.0,16090.0,13301.0,15771.0
688.47,21234.0,18631.0,16237.0,18423.0,14469.0,15917.0,15500.0,17987.0,16532.0,18021.0,8867.0,11639.0,16401.0,13400.0,16482.0
690.63,20694.0,17551.0,16095.0,18361.0,14593.0,15880.0,15036.0,17607.0,16100.0,17601.0,8824.0,11651.0,16016.0,13253.0,16145.0
692.8,19299.0,15623.0,15920.0,18890.0,14603.0,15817.0,15309.0,17819.0,16536.0,17472.0,9160.0,12039.0,16393.0,12939.0,16116.0
694.96,18695.0,15355.0,15921.0,17739.0,14605.0,16246.0,15562.0,17711.0,15923.0,17575.0,8682.0,11501.0,16211.0,13037.0,15813.0
697.12,19056.0,15201.0,16340.0,17952.0,14731.0,16200.0,15362.0,18016.0,16164.0,17581.0,8629.0,11637.0,16010.0,12965.0,16361.0
699.28,18543.0,14832.0,15670.0,18091.0,14123.0,15703.0,15258.0,17488.0,16324.0,17554.0,8806.0,11479.0,15953.0,12858.0,15954.0
701.44,18882.0,15313.0,16389.0,17961.0,14242.0,15905.0,15502.0,17771.0,16480.0,17570.0,9006.0,11573.0,16206.0,13000.0,16393.0
703.6,18893.0,14838.0,16021.0,17545.0,14205.0,16051.0,15141.0,17470.0,16080.0,17570.0,8912.0,11691.0,16436.0,13319.0,16266.0
705.76,18886.0,15068.0,16133.0,17805.0,14232.0,16099.0,15191.0,17598.0,16552.0,17197.0,8786.0,11704.0,16336.0,12931.0,16182.0
707.91,18192.0,14848.0,15759.0,17750.0,14216.0,15725.0,15606.0,17185.0,16382.0,17235.0,8733.0,11831.0,15663.0,13416.0,15851.0
710.07,18620.0,15091.0,15971.0,18029.0,14440.0,16210.0,15257.0,17382.0,15890.0,17448.0,8808.0,11279.0,15516.0,13045.0,15974.0
712.22,18315.0,15104.0,15951.0,17770.0,14391.0,15905.0,15236.0,17662.0,16302.0,17063.0,8790.0,11686.0,15878.0,13363.0,15897.0
714.38,17944.0,14717.0,15332.0,17246.0,14088.0,15672.0,14936.0,16960.0,15944.0,16680.0,8581.0,11365.0,15729.0,12863.0,15772.0
716.53,18137.0,14922.0,15582.0,17530.0,14336.0,15764.0,14938.0,17030.0,15994.0,16652.0,8493.0,11218.0,15840.0,12642.0,15593.0
718.68,17996.0,14713.0,15717.0,17414.0,14126.0,15013.0,14721.0,16504.0,15887.0,16538.0,8946.0,11391.0,15881.0,12910.0,15720.0
720.84,17872.0,14886.0,15489.0,17152.0,13608.0,15546.0,14869.0,17144.0,15497.0,16505.0,8631.0,11301.0,15789.0,12496.0,15344.0
722.99,17883.0,14710.0,15628.0,17710.0,13822.0,15205.0,14802.0,16986.0,15386.0,16987.0,8784.0,11118.0,15870.0,12572.0,15599.0
725.14,17813.0,14582.0,15332.0,17350.0,13833.0,15554.0,14642.0,16962.0,15506.0,16223.0,8814.0,11279.0,15730.0,12768.0,15176.0
727.28,18118.0,14616.0,15329.0,17299.0,13909.0,15720.0,14773.0,17165.0,15662.0,16573.0,8718.0,11096.0,15741.0,13005.0,15985.0
729.43,18259.0,14619.0,15543.0,17399.0,13766.0,15481.0,15012.0,16946.0,15729.0,16790.0,8288.0,11052.0,15741.0,12646.0,15659.0
731.58,18075.0,14618.0,15579.0,17339.0,14209.0,15456.0,14763.0,17073.0,15838.0,17064.0,8318.0,11017.0,15651.0,12503.0,15545.0
733.72,17929.0,14468.0,14954.0,17278.0,13386.0,15620.0,14359.0,16785.0,15526.0,16561.0,8235.0,10836.0,15362.0,12324.0,15286.0
735.87,17530.0,14281.0,15019.0,16495.0,13570.0,15272.0,14849.0,17015.0,14993.0,16279.0,8242.0,10851.0,15590.0,12567.0,15374.0
738.01,17577.0,14118.0,14923.0,16771.0,13597.0,14995.0,14270.0,16469.0,15509.0,16595.0,8598.0,10785.0,15376.0,12343.0,15022.0
740.16,17509.0,14243.0,14935.0,17013.0,13485.0,15254.0,14499.0,16915.0,15340.0,16207.0,8336.0,10576.0,15631.0,12371.0,15295.0
742.3,17294.0,14259.0,14989.0,16737.0,13471.0,15013.0,14559.0,16655.0,15444.0,15926.0,8444.0,10849.0,15072.0,12350.0,14603.0
744.44,17510.0,14677.0,14827.0,16328.0,13394.0,14980.0,14657.0,16546.0,15300.0,16311.0,8467.0,10832.0,15155.0,12576.0,14946.0
746.58,17344.0,14558.0,14831.0,16532.0,13719.0,14745.0,14453.0,16416.0,15641.0,16029.0,8441.0,10940.0,15400.0,12564.0,14911.0
748.72,17243.0,14035.0,14710.0,16446.0,13582.0,14561.0,14307.0,16287.0,15379.0,15853.0,8294.0,10732.0,15164.0,12252.0,15145.0
750.86,17665.0,14616.0,15035.0,16833.0,13770.0,14694.0,14331.0,16457.0,15513.0,16041.0,8392.0,10811.0,15369.0,12389.0,14949.0
753.0,17265.0,13822.0,14722.0,16580.0,13546.0,14773.0,14138.0,16301.0,14977.0,15978.0,8218.0,10547.0,15648.0,12313.0,14627.0
755.13,17426.0,14223.0,14997.0,16793.0,13734.0,14707.0,14362.0,16554.0,15220.0,15987.0,8202.0,10760.0,15066.0,12167.0,15152.0
757.27,17294.0,13984.0,14797.0,16503.0,13821.0,14226.0,14623.0,16411.0,15362.0,16279.0,8192.0,10771.0,15417.0,12374.0,14891.0
759.4,16936.0,13942.0,14774.0,16227.0,13405.0,14737.0,14042.0,16024.0,14894.0,16072.0,8052.0,10330.0,14848.0,12006.0,14441.0
761.54,16984.0,14295.0,14540.0,16726.0,13378.0,14247.0,14338.0,16166.0,15205.0,16282.0,8202.0,10609.0,14707.0,11950.0,14782.0
763.67,16811.0,13904.0,14441.0,16283.0,13241.0,14274.0,13967.0,15954.0,15072.0,15623.0,7802.0,10782.0,14675.0,11800.0,14349.0
765.8,16659.0,13619.0,14402.0,16193.0,13281.0,14135.0,13911.0,16072.0,14652.0,15617.0,8019.0,10462.0,14711.0,11811.0,14076.0
767.93,16835.0,13800.0,14453.0,16182.0,13083.0,14387.0,13990.0,16106.0,15125.0,15567.0,8225.0,10373.0,14797.0,12146.0,14407.0
770.06,17055.0,14243.0,14939.0,16326.0,13267.0,14285.0,13986.0,15949.0,15075.0,15772.0,7981.0,10405.0,15010.0,12173.0,14695.0
772.19,16901.0,14130.0,14545.0,16234.0,13368.0,14262.0,14046.0,15991.0,14848.0,15663.0,7822.0,10578.0,14732.0,11991.0,14245.0
774.32,16584.0,13878.0,14604.0,16342.0,13139.0,14253.0,14066.0,16056.0,14875.0,15999.0,7822.0,10496.0,14413.0,12121.0,14568.0
776.45,16563.0,13810.0,14335.0,15974.0,12543.0,14314.0,13482.0,15665.0,14973.0,15520.0,7944.0,10597.0,14541.0,12155.0,14565.0
778.58,17033.0,13888.0,14685.0,16191.0,12865.0,13874.0,13386.0,15292.0,14541.0,15704.0,7542.0,10416.0,14372.0,11996.0,14439.0
780.7,16568.0,13446.0,14651.0,16109.0,12599.0,13959.0,13666.0,15637.0,14776.0,15447.0,7501.0,10426.0,14654.0,11686.0,14183.0
782.83,16871.0,13165.0,14445.0,15975.0,12887.0,13905.0,13701.0,15577.0,14688.0,15659.0,7861.0,10297.0,14221.0,11728.0,14293.0
784.95,16899.0,13466.0,14375.0,16460.0,13233.0,14185.0,13597.0,15501.0,14552.0,15396.0,7546.0,10385.0,14442.0,11805.0,14119.0
787.07,16511.0,13467.0,14107.0,16095.0,13075.0,13949.0,13526.0,15357.0,14832.0,15706.0,7808.0,10095.0,14408.0,11662.0,14426.0
789.19,16741.0,13398.0,14296.0,15638.0,12581.0,13866.0,13546.0,15913.0,14515.0,15243.0,7355.0,9790.0,14493.0,11580.0,14204.0
791.32,16876.0,13228.0,14096.0,15955.0,12649.0,13932.0,13351.0,15309.0,14229.0,15166.0,7679.0,10291.0,13995.0,11675.0,14181.0
793.44,16889.0,13052.0,14212.0,15893.0,12859.0,13790.0,13515.0,15436.0,14412.0,15711.0,7723.0,9952.0,14264.0,11661.0,14143.0
795.56,16582.0,13541.0,13957.0,16065.0,12572.0,13669.0,13420.0,15151.0,14460.0,15113.0,7516.0,10181.0,14309.0,11424.0,13755.0
797.67,16143.0,12757.0,14063.0,15955.0,12883.0,13619.0,13443.0,15494.0,14335.0,15317.0,7551.0,9841.0,14490.0,11400.0,13879.0
799.79,16226.0,13258.0,14193.0,16123.0,12863.0,13349.0,13509.0,15653.0,14509.0,15534.0,7524.0,9850.0,14237.0,10762.0,14021.0
801.91,16398.0,13709.0,14452.0,16287.0,13192.0,13821.0,13442.0,15327.0,15110.0,15590.0,7599.0,10293.0,14431.0,11202.0,14258.0
804.02,16073.0,13634.0,14525.0,15991.0,12687.0,13921.0,13627.0,15842.0,14548.0,15514.0,7537.0,10231.0,13922.0,11690.0,14179.0
806.14,16777.0,13270.0,14699.0,16125.0,13192.0,14019.0,13568.0,15569.0,14743.0,15841.0,7464.0,9870.0,14202.0,11239.0,14319.0
808.25,16098.0,13436.0,14725.0,16049.0,13023.0,13383.0,13361.0,15318.0,14357.0,15110.0,7777.0,10005.0,14031.0,11097.0,14439.0
810.37,16239.0,13660.0,14209.0,15745.0,12547.0,13752.0,13545.0,15258.0,14231.0,15423.0,7487.0,10068.0,14071.0,11296.0,14061.0
812.48,15972.0,13535.0,14221.0,15816.0,12599.0,13222.0,13086.0,15328.0,14361.0,15240.0,7678.0,9887.0,13838.0,11294.0,14083.0
814.59,15934.0,13384.0,14524.0,15836.0,12900.0,13088.0,13021.0,14951.0,14206.0,15289.0,7387.0,10023.0,13717.0,11387.0,13936.0
816.7,15962.0,13189.0,14087.0,16017.0,12597.0,13201.0,13196.0,14837.0,14396.0,15352.0,7623.0,10172.0,13789.0,10830.0,14058.0
818.81,15969.0,13448.0,13755.0,15547.0,12214.0,13036.0,12637.0,14864.0,14191.0,15111.0,7111.0,9831.0,13721.0,11086.0,13454.0
820.92,15347.0,12944.0,13743.0,15337.0,12284.0,13350.0,12828.0,15258.0,13589.0,15090.0,7622.0,9649.0,14013.0,10707.0,13768.0
823.02,15928.0,13305.0,14690.0,15540.0,12742.0,13238.0,13396.0,15161.0,14172.0,15612.0,7544.0,10101.0,14066.0,11153.0,13769.0
825.13,15421.0,13485.0,13873.0,15421.0,12396.0,13077.0,12852.0,14711.0,14410.0,14919.0,7333.0,9806.0,14180.0,10999.0,13433.0
827.24,15716.0,12853.0,13985.0,15836.0,12524.0,13202.0,13344.0,14493.0,13925.0,14584.0,7424.0,9847.0,13606.0,11363.0,13495.0
829.34,16015.0,13014.0,13820.0,15618.0,12349.0,13332.0,13201.0,14985.0,14126.0,15218.0,7416.0,9744.0,13780.0,11202.0,13752.0
831.45,15687.0,13288.0,13784.0,15905.0,12542.0,13517.0,12844.0,14838.0,14045.0,15119.0,7654.0,10046.0,13930.0,11422.0,13692.0
833.55,15282.0,13058.0,13880.0,15637.0,12418.0,13257.0,13189.0,14705.0,14078.0,14864.0,7625.0,9907.0,13790.0,11122.0,13587.0
835.65,15931.0,13232.0,13925.0,15634.0,12373.0,13413.0,13059.0,14785.0,14393.0,15351.0,7374.0,9551.0,13786.0,10953.0,13779.0
837.75,16537.0,13636.0,14225.0,15579.0,12693.0,13390.0,13208.0,15095.0,14124.0,14949.0,7451.0,10186.0,13821.0,11168.0,14108.0
839.85,15393.0,13106.0,14029.0,15539.0,12413.0,13660.0,13330.0,14998.0,14256.0,14964.0,7558.0,9780.0,14036.0,11205.0,13816.0
841.95,15641.0,13079.0,14247.0,15486.0,12517.0,13419.0,13056.0,14861.0,13927.0,14838.0,7518.0,9914.0,14048.0,11780.0,13609.0
844.05,15919.0,13296.0,13895.0,15513.0,12205.0,13106.0,12874.0,14963.0,14072.0,14885.0,7567.0,10032.0,13759.0,11420.0,13813.0
846.15,16290.0,13277.0,14439.0,15835.0,12204.0,13282.0,13003.0,14855.0,13891.0,14813.0,7713.0,10332.0,13986.0,11548.0,14198.0
848.24,16613.0,13344.0,14490.0,16027.0,12493.0,13723.0,13540.0,15244.0,14526.0,14980.0,7663.0,10088.0,14029.0,11997.0,14524.0
850.34,16458.0,13348.0,14729.0,15789.0,12405.0,13787.0,13389.0,15358.0,14616.0,14969.0,7708.0,10255.0,14434.0,11743.0,14648.0
852.44,16383.0,13314.0,14743.0,15497.0,12489.0,13743.0,13330.0,15375.0,14323.0,15129.0,7704.0,10248.0,14236.0,11479.0,14571.0
854.53,16256.0,13267.0,14467.0,15565.0,12559.0,13315.0,13495.0,15566.0,14359.0,15118.0,7467.0,9928.0,14191.0,11670.0,14500.0
856.62,15790.0,12901.0,14962.0,15681.0,12738.0,13409.0,13524.0,15133.0,14579.0,15112.0,7512.0,10320.0,14363.0,11515.0,14329.0
858.71,15775.0,12850.0,14070.0,15617.0,12600.0,13151.0,13192.0,15007.0,14468.0,14970.0,7762.0,10370.0,13956.0,11458.0,13963.0
860.81,15586.0,13302.0,14324.0,15426.0,12346.0,13304.0,13182.0,15174.0,14057.0,14438.0,7515.0,10062.0,14032.0,11527.0,13711.0
862.9,15742.0,13018.0,14191.0,15700.0,12743.0,13380.0,13202.0,14700.0,14093.0,14588.0,7492.0,10192.0,14009.0,11444.0,13564.0
864.99,15602.0,12944.0,14152.0,15440.0,12506.0,13115.0,12999.0,14915.0,14190.0,14866.0,7804.0,10241.0,13791.0,11609.0,13834.0
867.08,15612.0,13192.0,14189.0,15434.0,12622.0,13658.0,13362.0,14757.0,14308.0,14917.0,7698.0,10297.0,14121.0,11813.0,13389.0
869.16,15623.0,12664.0,13727.0,15375.0,12607.0,13226.0,13138.0,15028.0,13815.0,14537.0,7356.0,10343.0,13761.0,11319.0,13578.0
871.25,15860.0,13080.0,13756.0,15512.0,12550.0,13331.0,13125.0,15143.0,14000.0,14952.0,7484.0,9907.0,13855.0,11313.0,13322.0
873.34,15608.0,13466.0,13996.0,15558.0,12684.0,13188.0,13250.0,15095.0,13600.0,14635.0,7187.0,10169.0,13739.0,11159.0,13473.0
875.42,15657.0,13226.0,13499.0,15656.0,12616.0,13132.0,13076.0,15379.0,14351.0,14518.0,7089.0,10403.0,13913.0,11701.0,13307.0
877.51,15369.0,13002.0,13927.0,15441.0,12955.0,12991.0,12765.0,15085.0,13832.0,14777.0,7234.0,10205.0,14132.0,11266.0,13650.0
879.59,15563.0,13364.0,13725.0,15139.0,12914.0,12994.0,13168.0,15135.0,14178.0,14981.0,7194.0,10143.0,13859.0,11466.0,13502.0
881.67,15077.0,12555.0,13200.0,15101.0,12479.0,12952.0,12873.0,14831.0,13951.0,14482.0,7200.0,9968.0,13320.0,11241.0,13114.0
883.75,15492.0,13068.0,13558.0,15078.0,12597.0,13157.0,12709.0,15073.0,13764.0,14821.0,7229.0,10495.0,13821.0,11399.0,13339.0
885.83,15054.0,12798.0,13449.0,14773.0,12665.0,12722.0,12429.0,14271.0,13687.0,14819.0,7385.0,10195.0,13668.0,11147.0,13190.0
887.91,14644.0,13027.0,13204.0,14866.0,12500.0,12729.0,12616.0,14332.0,13869.0,14455.0,7469.0,10064.0,13603.0,11003.0,12700.0
889.99,14737.0,12882.0,13467.0,15048.0,12497.0,12543.0,12597.0,14327.0,13742.0,14363.0,7236.0,10118.0,13728.0,11163.0,13038.0
892.07,14910.0,12740.0,13254.0,14875.0,12325.0,13071.0,12869.0,14636.0,13667.0,14327.0,7157.0,9961.0,13754.0,10989.0,12900.0
894.15,15159.0,12781.0,13513.0,14659.0,12445.0,13045.0,12597.0,14360.0,13427.0,14703.0,7407.0,9977.0,13439.0,11354.0,13176.0
896.22,14882.0,12733.0,13456.0,14859.0,12444.0,12989.0,12591.0,14226.0,13403.0,14362.0,7177.0,9473.0,13699.0,11064.0,13087.0
898.3,14922.0,12637.0,13173.0,15080.0,12183.0,12886.0,12789.0,14352.0,13664.0,14294.0,7192.0,9568.0,13156.0,10959.0,12988.0
900.37,14710.0,12487.0,13223.0,14839.0,12067.0,12952.0,12296.0,13958.0,13146.0,14195.0,7384.0,9821.0,13478.0,11293.0,12914.0
902.45,15041.0,12114.0,13323.0,14524.0,12087.0,12490.0,12321.0,13992.0,13219.0,14696.0,7169.0,9920.0,13331.0,11004.0,12638.0
904.52,14596.0,12347.0,12987.0,14850.0,12027.0,12603.0,12258.0,13808.0,13508.0,14346.0,6968.0,9296.0,13385.0,10676.0,12822.0
906.59,14844.0,12839.0,12983.0,14639.0,12027.0,12654.0,12362.0,14094.0,13395.0,13995.0,7063.0,9777.0,13117.0,10510.0,12738.0
908.66,14668.0,12469.0,12821.0,14563.0,11869.0,12875.0,12522.0,14054.0,13517.0,14303.0,7003.0,9786.0,13335.0,10913.0,12796.0
910.73,14723.0,12506.0,13131.0,14871.0,11731.0,13081.0,12747.0,14047.0,13486.0,14451.0,7137.0,9782.0,13225.0,10658.0,12948.0
912.8,14979.0,12424.0,13231.0,14883.0,12071.0,13172.0,12944.0,13887.0,13632.0,13989.0,7060.0,9636.0,13275.0,10873.0,12728.0
914.87,14843.0,12885.0,13151.0,14807.0,11750.0,12643.0,12395.0,14137.0,13360.0,14301.0,7254.0,9551.0,13464.0,10750.0,12810.0
916.94,15155.0,12851.0,13285.0,15214.0,11772.0,12857.0,12610.0,14003.0,13453.0,14082.0,7113.0,9900.0,13313.0,10896.0,13076.0
919.0,15439.0,12903.0,13669.0,15213.0,12268.0,13038.0,12802.0,14257.0,13862.0,15106.0,7173.0,10111.0,13408.0,11218.0,13341.0
921.07,15542.0,13158.0,14170.0,15169.0,12001.0,12982.0,12689.0,14533.0,13789.0,14612.0,7122.0,10199.0,13479.0,10487.0,13315.0
923.14,15890.0,12866.0,14398.0,15760.0,12743.0,13515.0,12985.0,14599.0,14336.0,15128.0,7325.0,10010.0,13814.0,11187.0,13414.0
925.2,15744.0,13367.0,14332.0,15496.0,12853.0,13428.0,12792.0,14587.0,14086.0,15076.0,7278.0,10023.0,13351.0,10873.0,13819.0
927.26,15548.0,13163.0,14095.0,15795.0,12180.0,13582.0,12903.0,14677.0,13870.0,15051.0,7335.0,10105.0,13680.0,10863.0,13600.0
929.32,15737.0,13420.0,14145.0,15723.0,12311.0,13882.0,13033.0,14951.0,14260.0,15109.0,7256.0,9840.0,13641.0,10770.0,13614.0
931.39,15443.0,12851.0,14133.0,15490.0,12207.0,13120.0,12527.0,14392.0,13544.0,14531.0,7285.0,9786.0,13707.0,10872.0,13322.0
933.45,14877.0,12938.0,13535.0,15167.0,11916.0,13096.0,12378.0,14493.0,13620.0,14378.0,7202.0,9892.0,13710.0,10720.0,12875.0
935.51,14820.0,12603.0,13343.0,14907.0,11771.0,12901.0,12350.0,14098.0,13508.0,14119.0,7285.0,9402.0,13451.0,10594.0,12872.0
937.56,14497.0,12663.0,13389.0,14895.0,11761.0,12947.0,12429.0,14201.0,13507.0,14379.0,7078.0,9930.0,13300.0,11028.0,12829.0
939.62,14730.0,12739.0,13271.0,14563.0,11549.0,13173.0,12256.0,14119.0,13556.0,14238.0,7017.0,9660.0,13778.0,10607.0,12907.0
941.68,14883.0,12317.0,13172.0,14383.0,11960.0,12777.0,12073.0,14139.0,13094.0,14221.0,6730.0,9345.0,13319.0,10450.0,12830.0
943.74,14260.0,11910.0,13100.0,14782.0,11738.0,12673.0,11864.0,14078.0,12886.0,13853.0,6575.0,9751.0,13388.0,10380.0,12543.0
945.79,14784.0,11852.0,13334.0,14846.0,11800.0,12620.0,12219.0,14131.0,13439.0,14276.0,6836.0,9636.0,13252.0,10259.0,12533.0
947.85,14343.0,11793.0,13303.0,14450.0,11655.0,12428.0,11987.0,13609.0,13636.0,14018.0,6449.0,9516.0,13159.0,10366.0,12620.0
949.9,14381.0,12096.0,13015.0,14173.0,11493.0,12179.0,11966.0,13593.0,13135.0,13876.0,6824.0,9426.0,12902.0,10057.0,12542.0
951.95,14606.0,12557.0,13460.0,14711.0,11633.0,12595.0,11866.0,13753.0,13476.0,13954.0,6685.0,9678.0,13292.0,10265.0,12817.0
954.0,14534.0,12119.0,12838.0,14370.0,11652.0,12741.0,11776.0,14016.0,13035.0,13796.0,6636.0,9406.0,13082.0,9999.0,12923.0
956.05,14409.0,11842.0,13061.0,14187.0,11675.0,12344.0,12076.0,13706.0,12827.0,13691.0,6753.0,9208.0,12641.0,10113.0,12227.0
958.1,14324.0,11882.0,12944.0,14452.0,11582.0,11950.0,12187.0,13835.0,13442.0,13663.0,6445.0,8938.0,12746.0,9989.0,12193.0
960.15,14156.0,12190.0,12714.0,13797.0,11145.0,12123.0,11680.0,13751.0,12946.0,13476.0,6728.0,9234.0,12814.0,10293.0,12310.0
962.2,13881.0,11476.0,12771.0,13959.0,11619.0,12190.0,12118.0,13595.0,12889.0,13305.0,6720.0,9004.0,12535.0,10092.0,12239.0
964.25,13929.0,11617.0,12649.0,13764.0,11315.0,11767.0,11808.0,13463.0,12912.0,13277.0,6689.0,9170.0,12173.0,9699.0,12422.0
966.3,13671.0,11601.0,12093.0,14015.0,11438.0,11751.0,11747.0,13637.0,12786.0,13446.0,6547.0,9116.0,12062.0,9682.0,12199.0
968.34,13445.0,11440.0,11861.0,13852.0,10987.0,11838.0,11780.0,13307.0,12644.0,12955.0,6715.0,9019.0,12341.0,9663.0,12033.0
970.39,13576.0,11409.0,12043.0,13763.0,10950.0,11615.0,11348.0,12897.0,12862.0,13124.0,6117.0,8994.0,12053.0,9427.0,11998.0
972.43,13603.0,11351.0,12136.0,13855.0,10916.0,11678.0,11312.0,13395.0,12564.0,13047.0,6396.0,8775.0,11936.0,9502.0,11974.0
974.47,13713.0,11640.0,12034.0,13745.0,11069.0,11532.0,11499.0,13390.0,12755.0,12987.0,6268.0,8799.0,11858.0,9386.0,12050.0
976.51,13222.0,11494.0,12018.0,13391.0,10953.0,11593.0,11098.0,12977.0,12251.0,13056.0,6407.0,8707.0,11618.0,9367.0,12026.0
978.56,13278.0,11064.0,12084.0,13186.0,10490.0,11805.0,11285.0,13238.0,12057.0,12934.0,6331.0,8720.0,11970.0,9247.0,11455.0
980.6,12987.0,11306.0,11903.0,13199.0,10459.0,11535.0,11006.0,13218.0,12356.0,12976.0,6374.0,8812.0,11877.0,9452.0,11587.0
982.64,13212.0,11141.0,11897.0,13073.0,10575.0,11509.0,11062.0,12748.0,12101.0,13009.0,6377.0,8851.0,11475.0,9606.0,11726.0
984.68,13543.0,11459.0,11860.0,13131.0,10506.0,11487.0,10921.0,12867.0,12182.0,13087.0,6197.0,8649.0,11519.0,9396.0,11681.0
986.71,13505.0,11646.0,11683.0,12965.0,10510.0,11527.0,10879.0,12719.0,12265.0,12513.0,6128.0,8540.0,11412.0,9349.0,11689.0
988.75,13589.0,11364.0,11905.0,13421.0,10750.0,11166.0,10995.0,12870.0,12220.0,12773.0,5966.0,8483.0,11733.0,8762.0,11734.0
990.79,13217.0,11109.0,11835.0,13249.0,10567.0,11258.0,10971.0,12684.0,12073.0,12613.0,6049.0,8511.0,11726.0,9270.0,11439.0
992.82,13087.0,11158.0,11767.0,13029.0,10383.0,11423.0,11302.0,12319.0,11937.0,12741.0,6197.0,8334.0,11474.0,9271.0,11473.0
994.86,13191.0,10734.0,11875.0,13037.0,10503.0,11416.0,10995.0,12555.0,12109.0,12594.0,6254.0,8480.0,11208.0,9529.0,11644.0
996.89,13282.0,11052.0,11546.0,12902.0,10508.0,10927.0,10962.0,12484.0,11913.0,12285.0,6336.0,8820.0,11354.0,9223.0,11307.0
998.92,13007.0,11135.0,11598.0,13031.0,10513.0,11277.0,10873.0,12667.0,12055.0,12572.0,6189.0,8461.0,11448.0,9007.0,11265.0
1000.95,12951.0,10886.0,11633.0,13139.0,10669.0,11139.0,11392.0,12813.0,12144.0,12395.0,6312.0,8708.0,11320.0,9036.0,11534.0
1002.98,12893.0,11216.0,11477.0,13053.0,10487.0,10979.0,11058.0,12285.0,11710.0,12315.0,5895.0,8241.0,11189.0,9068.0,11353.0
1005.02,12901.0,11145.0,11417.0,12191.0,10343.0,11044.0,10783.0,12109.0,11838.0,12435.0,6090.0,8087.0,11251.0,8777.0,11375.0
1007.04,12849.0,10805.0,11343.0,12853.0,10337.0,11033.0,11020.0,12299.0,11983.0,12396.0,6093.0,8722.0,11200.0,9460.0,11403.0
1009.07,12565.0,10680.0,11430.0,12878.0,10303.0,11026.0,10842.0,12100.0,12011.0,12548.0,6091.0,8082.0,11123.0,9222.0,11503.0
1011.1,12649.0,10648.0,11419.0,12709.0,10358.0,11192.0,10981.0,12309.0,12057.0,12249.0,5746.0,8440.0,11146.0,8995.0,10967.0
1013.13,12173.0,10957.0,11267.0,12419.0,10153.0,10977.0,10462.0,12429.0,11917.0,12240.0,6081.0,8361.0,11345.0,9077.0,10949.0
1015.15,12731.0,10908.0,11566.0,12691.0,10428.0,11144.0,10843.0,12186.0,11759.0,12743.0,5760.0,8226.0,11331.0,8978.0,11317.0
1017.18,12769.0,10436.0,11549.0,12386.0,10452.0,10639.0,10865.0,12236.0,12007.0,12324.0,5656.0,8114.0,11299.0,8969.0,11029.0
1019.2,12390.0,10784.0,11184.0,12450.0,10282.0,10884.0,10446.0,12111.0,12036.0,12730.0,6084.0,8235.0,11315.0,9097.0,10675.0
1021.23,12668.0,10732.0,11466.0,12539.0,10007.0,10610.0,10522.0,12227.0,12055.0,12123.0,5904.0,8311.0,11008.0,8783.0,11001.0
1023.25,12424.0,10714.0,11399.0,12099.0,10113.0,10561.0,9974.0,12377.0,11753.0,12017.0,6218.0,8132.0,11359.0,8773.0,11053.0
1025.27,12347.0,10615.0,11277.0,12242.0,10080.0,10718.0,10272.0,12230.0,11605.0,11911.0,5772.0,8069.0,11188.0,8871.0,10928.0
1027.29,12277.0,10708.0,10963.0,12110.0,9866.0,10336.0,10588.0,12585.0,11573.0,11982.0,5819.0,8104.0,11051.0,8893.0,10881.0
1029.31,12061.0,10575.0,11153.0,12292.0,10142.0,10488.0,10321.0,12210.0,11811.0,12216.0,5964.0,8219.0,10765.0,8804.0,10757.0
1031.33,12317.0,10563.0,10894.0,12350.0,9778.0,10692.0,10386.0,12008.0,11749.0,12195.0,5791.0,8318.0,10902.0,8588.0,10840.0
1033.35,12209.0,10609.0,10970.0,12340.0,9916.0,10479.0,10538.0,12166.0,11523.0,11936.0,5497.0,8318.0,10604.0,8653.0,10790.0
1035.36,11871.0,10371.0,10665.0,12256.0,9788.0,10250.0,9880.0,11815.0,11283.0,11702.0,5673.0,8022.0,10598.0,8622.0,10671.0
1037.38,12016.0,10553.0,10837.0,12199.0,9860.0,10572.0,10258.0,11882.0,11501.0,11943.0,5756.0,8216.0,10872.0,8659.0,10573.0
1039.4,11997.0,10563.0,10913.0,12365.0,9847.0,10452.0,9961.0,12136.0,11491.0,12076.0,5596.0,7838.0,10785.0,8379.0,10721.0
1041.41,12129.0,10240.0,10677.0,12210.0,9755.0,10865.0,10336.0,11811.0,11275.0,11837.0,5916.0,7937.0,10996.0,8688.0,10601.0
1043.42,11818.0,10439.0,10918.0,12263.0,9848.0,10504.0,10501.0,11766.0,10858.0,12047.0,5838.0,7754.0,10336.0,8551.0,10563.0
1045.44,12375.0,10078.0,10780.0,12288.0,9737.0,10495.0,10262.0,11802.0,11075.0,11603.0,5750.0,7958.0,10655.0,8432.0,10336.0
1047.45,12028.0,9942.0,11000.0,12022.0,9600.0,10189.0,10091.0,11517.0,10839.0,11475.0,5522.0,7927.0,10295.0,8322.0,10347.0
1049.46,11819.0,9989.0,10789.0,12172.0,9670.0,10375.0,10198.0,11226.0,10914.0,11432.0,5564.0,7666.0,10401.0,8499.0,10291.0
1051.47,11800.0,10193.0,10321.0,11904.0,9461.0,10267.0,10434.0,11699.0,11013.0,11456.0,5872.0,7897.0,10368.0,8589.0,10113.0
1053.48,11712.0,10009.0,10629.0,11875.0,9643.0,10432.0,9908.0,11376.0,11249.0,11601.0,5782.0,7636.0,10734.0,8425.0,10212.0
1055.49,11954.0,9881.0,10870.0,11874.0,9626.0,10236.0,10031.0,11459.0,10880.0,11340.0,5625.0,7961.0,10396.0,8601.0,10427.0
1057.5,11847.0,9999.0,10593.0,11574.0,9578.0,10328.0,9915.0,11242.0,11133.0,11709.0,5687.0,7501.0,10369.0,8522.0,10390.0
1059.51,11786.0,9987.0,10644.0,11969.0,9446.0,10428.0,10015.0,11395.0,11235.0,11554.0,5761.0,8228.0,10893.0,8452.0,10285.0
1061.51,11837.0,10138.0,10909.0,11976.0,9547.0,10524.0,9943.0,11536.0,10945.0,11655.0,5686.0,7594.0,10500.0,8634.0,10478.0
1063.52,11911.0,10272.0,10844.0,11680.0,9484.0,10115.0,10053.0,11660.0,10981.0,11792.0,5753.0,7888.0,10175.0,8666.0,10387.0
1065.52,11653.0,10167.0,10464.0,11629.0,9763.0,10239.0,10121.0,11645.0,11161.0,11633.0,5673.0,7764.0,10375.0,8539.0,10127.0
1067.53,11957.0,10080.0,10784.0,11644.0,9514.0,10184.0,9708.0,11431.0,11000.0,11932.0,5687.0,7601.0,10856.0,8355.0,10335.0
1069.53,11852.0,10256.0,10704.0,12031.0,9519.0,10514.0,10157.0,11549.0,11253.0,11408.0,5771.0,7804.0,10406.0,8549.0,10626.0
1071.53,11702.0,10184.0,10642.0,11928.0,9640.0,10373.0,10020.0,11563.0,10789.0,11708.0,5891.0,7887.0,10598.0,8580.0,10577.0
1073.53,12153.0,9997.0,10615.0,12333.0,9784.0,10124.0,9706.0,11307.0,10872.0,11499.0,5687.0,7840.0,10552.0,8542.0,10681.0
1075.53,12364.0,10455.0,10813.0,12096.0,9703.0,10306.0,10067.0,11582.0,11130.0,11582.0,5560.0,7657.0,10856.0,8540.0,10747.0
1077.53,11905.0,10071.0,10858.0,11816.0,9624.0,10283.0,10308.0,11478.0,11158.0,11812.0,5401.0,8097.0,10760.0,8563.0,10693.0
1079.53,12539.0,10377.0,10879.0,12349.0,9648.0,10322.0,10307.0,11542.0,11152.0,11494.0,5596.0,7668.0,10660.0,8632.0,10595.0
1081.53,12474.0,10055.0,10819.0,11901.0,9624.0,10429.0,10033.0,11439.0,11111.0,11617.0,5796.0,7977.0,11001.0,8450.0,10396.0
1083.53,12372.0,10092.0,10879.0,11869.0,9665.0,10206.0,9912.0,11252.0,11195.0,11291.0,5758.0,7825.0,10567.0,8830.0,10292.0
1085.52,12097.0,9889.0,10608.0,11718.0,9496.0,10332.0,9755.0,11391.0,10888.0,11300.0,5676.0,7803.0,10555.0,8743.0,10530.0
1087.52,12186.0,9997.0,10487.0,11653.0,9593.0,10259.0,9777.0,11229.0,11052.0,11683.0,5769.0,7878.0,10928.0,8396.0,10612.0
1089.51,12363.0,9868.0,10606.0,11881.0,9592.0,10313.0,10142.0,11348.0,10977.0,11661.0,5878.0,7718.0,10673.0,8564.0,10621.0
1091.5,12249.0,10077.0,10555.0,11945.0,9421.0,10484.0,9985.0,11436.0,10997.0,11495.0,5658.0,8099.0,11014.0,8656.0,10518.0
1093.5,12411.0,9857.0,10768.0,11831.0,9917.0,10287.0,9687.0,11301.0,11140.0,11873.0,5826.0,7872.0,10541.0,8503.0,10685.0
1095.49,12453.0,10145.0,10796.0,12003.0,9769.0,10350.0,9881.0,11626.0,11184.0,11823.0,5641.0,7617.0,10407.0,8567.0,10216.0
1097.48,12260.0,9939.0,10574.0,12061.0,9657.0,10178.0,9784.0,11617.0,11181.0,12020.0,5584.0,7766.0,10640.0,8473.0,10449.0
1099.47,12766.0,10086.0,10610.0,11888.0,9522.0,10326.0,9882.0,11641.0,11131.0,11486.0,5275.0,7697.0,10558.0,8274.0,10404.0
1101.46,12324.0,10167.0,10766.0,12018.0,9529.0,10232.0,10152.0,11341.0,11188.0,11629.0,5743.0,7762.0,10659.0,8421.0,10442.0
1103.45,12495.0,10118.0,10850.0,11869.0,9537.0,10058.0,9913.0,11729.0,11322.0,11699.0,5558.0,7787.0,10604.0,8617.0,10363.0
1105.44,12318.0,10188.0,11019.0,11915.0,9487.0,10107.0,9810.0,11384.0,11497.0,11570.0,5576.0,7739.0,10721.0,8322.0,10562.0
1107.42,12650.0,10329.0,10629.0,12181.0,9849.0,10447.0,9918.0,11761.0,11192.0,11809.0,5690.0,7933.0,10607.0,8504.0,10477.0
1109.41,12045.0,9997.0,10825.0,11771.0,9725.0,10192.0,10119.0,11478.0,11154.0,11761.0,5557.0,7949.0,10666.0,8687.0,10264.0
1111.4,12406.0,9945.0,10552.0,12017.0,9741.0,10372.0,10073.0,11324.0,11182.0,11757.0,5769.0,7896.0,11065.0,8778.0,10662.0
1113.38,12334.0,10211.0,10443.0,12128.0,9640.0,10314.0,10241.0,11546.0,11227.0,11452.0,5576.0,8067.0,10437.0,8631.0,10614.0
1115.36,12536.0,10189.0,10928.0,12299.0,9701.0,10225.0,9976.0,11687.0,11056.0,11813.0,5702.0,8126.0,10706.0,8820.0,10632.0
1117.35,12623.0,10210.0,10988.0,12177.0,9865.0,10311.0,9939.0,11446.0,11243.0,11980.0,5694.0,8154.0,10727.0,8498.0,10769.0
1119.33,12532.0,10273.0,11067.0,12254.0,9882.0,10081.0,10061.0,11788.0,11083.0,11904.0,5802.0,8221.0,10722.0,8712.0,10623.0
1121.31,12663.0,10131.0,10789.0,12089.0,10105.0,10441.0,10030.0,11485.0,11119.0,12003.0,5813.0,8223.0,10889.0,8852.0,10955.0
1123.29,12189.0,9974.0,10706.0,12056.0,9710.0,10240.0,10148.0,11256.0,10993.0,11562.0,6025.0,8441.0,11012.0,8795.0,10291.0
1125.27,12930.0,10024.0,10614.0,12059.0,9811.0,9968.0,9900.0,11296.0,11061.0,11735.0,5697.0,8373.0,10752.0,8960.0,10777.0
1127.25,12798.0,10434.0,11168.0,12251.0,10073.0,10365.0,9992.0,11630.0,11133.0,11833.0,5630.0,8285.0,10633.0,8920.0,10569.0
1129.23,12641.0,10181.0,10948.0,12077.0,9521.0,9890.0,9687.0,11613.0,11045.0,11923.0,5483.0,8315.0,10627.0,9075.0,10814.0
1131.2,12976.0,10374.0,10962.0,12251.0,9824.0,10115.0,10051.0,11442.0,11127.0,11759.0,5931.0,8538.0,10873.0,8693.0,10767.0
1133.18,12962.0,10141.0,10790.0,11913.0,9655.0,10201.0,9988.0,11915.0,10719.0,11571.0,5686.0,8433.0,10917.0,8906.0,10586.0
1135.15,12952.0,10409.0,10980.0,12162.0,9499.0,10201.0,10291.0,11915.0,10940.0,11679.0,5703.0,8304.0,10881.0,8729.0,10782.0
1137.13,12797.0,10268.0,10771.0,12001.0,9590.0,10663.0,10082.0,11725.0,11040.0,11694.0,5613.0,8620.0,11000.0,8778.0,10585.0
1139.1,13295.0,10232.0,11121.0,11890.0,9480.0,10037.0,9821.0,11463.0,10867.0,11361.0,5826.0,8469.0,11038.0,8686.0,10401.0
1141.07,12750.0,10178.0,10776.0,11858.0,9610.0,10246.0,10027.0,11763.0,11321.0,11331.0,5643.0,8646.0,11155.0,9032.0,10284.0
1143.05,12638.0,10349.0,10203.0,11793.0,9451.0,10031.0,10046.0,11623.0,11547.0,11401.0,5765.0,8481.0,10858.0,8534.0,10630.0
1145.02,12638.0,10079.0,10534.0,11967.0,8960.0,10043.0,9933.0,11447.0,11039.0,11809.0,5710.0,8633.0,10950.0,8976.0,10265.0
1146.99,12677.0,10028.0,10411.0,11881.0,9391.0,10515.0,10296.0,11859.0,10838.0,11651.0,5475.0,8157.0,11484.0,8333.0,10459.0
1148.96,12784.0,10170.0,10662.0,12217.0,9213.0,10456.0,10068.0,11500.0,11098.0,11675.0,5732.0,8535.0,10776.0,8573.0,10304.0
1150.93,12710.0,10025.0,10644.0,11977.0,9655.0,10497.0,10520.0,11570.0,11104.0,11776.0,5958.0,8366.0,11210.0,8537.0,10623.0
1152.89,12599.0,10207.0,10254.0,11835.0,9289.0,10445.0,9975.0,11601.0,10970.0,11675.0,5620.0,8676.0,11025.0,8662.0,10299.0
1154.86,12504.0,9907.0,10478.0,12077.0,9772.0,10485.0,9804.0,11383.0,10830.0,11643.0,5881.0,8517.0,10878.0,8829.0,10391.0
1156.83,12358.0,9991.0,10504.0,12060.0,9263.0,10331.0,10080.0,11495.0,11063.0,11430.0,5742.0,8644.0,10861.0,8818.0,10368.0
1158.79,12519.0,10201.0,10411.0,11887.0,9321.0,10451.0,10088.0,11689.0,11169.0,11665.0,5901.0,8807.0,11022.0,8651.0,10611.0
1160.76,12398.0,10024.0,10613.0,11866.0,9571.0,10349.0,9667.0,11518.0,11145.0,11387.0,5630.0,8489.0,10986.0,8456.0,10654.0
1162.72,12030.0,10081.0,10290.0,12002.0,9269.0,10641.0,9672.0,11989.0,10867.0,11407.0,5629.0,8614.0,10846.0,8599.0,10247.0
1164.68,12166.0,10054.0,10598.0,11814.0,9357.0,10291.0,9589.0,11753.0,10924.0,11508.0,5827.0,8379.0,10853.0,8477.0,10378.0
1166.65,12240.0,10303.0,10351.0,11440.0,9609.0,10247.0,9450.0,11587.0,10940.0,11465.0,5704.0,8497.0,11246.0,8372.0,10409.0
1168.61,11979.0,9885.0,10412.0,11624.0,9297.0,10155.0,9814.0,11347.0,10764.0,11427.0,5843.0,8405.0,11292.0,8483.0,10240.0
1170.57,11998.0,10145.0,10307.0,11758.0,9379.0,9981.0,9715.0,11561.0,10621.0,11577.0,5651.0,8425.0,10836.0,8438.0,10450.0
1172.53,12169.0,10043.0,10317.0,11553.0,9284.0,10049.0,9662.0,11622.0,10591.0,11285.0,5448.0,8248.0,10968.0,8458.0,10481.0
1174.49,12759.0,10143.0,10529.0,11986.0,9343.0,10003.0,9407.0,11510.0,10975.0,11423.0,5370.0,8118.0,10777.0,8241.0,10513.0
1176.44,12584.0,9809.0,10345.0,11691.0,9341.0,10139.0,9797.0,11773.0,10828.0,11401.0,5550.0,7897.0,10975.0,8340.0,10520.0
1178.4,12069.0,9899.0,10064.0,11479.0,9131.0,9981.0,9361.0,11090.0,10897.0,10951.0,5602.0,8015.0,11028.0,8633.0,9934.0
1180.36,12299.0,9729.0,10291.0,11403.0,9431.0,10186.0,9260.0,11348.0,11157.0,11219.0,5820.0,8172.0,10977.0,8486.0,10212.0
1182.31,12328.0,9515.0,9948.0,11478.0,9148.0,9939.0,9450.0,11298.0,10826.0,11094.0,5262.0,7854.0,10757.0,8095.0,10349.0
1184.27,11894.0,9734.0,10275.0,11321.0,9319.0,10271.0,9398.0,11114.0,10785.0,11335.0,5323.0,8108.0,10842.0,8287.0,10410.0
1186.22,12055.0,9869.0,9990.0,10952.0,8949.0,9682.0,9082.0,11063.0,10776.0,11202.0,5478.0,7817.0,10577.0,8016.0,10200.0
1188.18,11836.0,9763.0,9643.0,11169.0,8816.0,10416.0,9010.0,11297.0,10574.0,10845.0,5516.0,8184.0,10792.0,8232.0,10326.0
1190.13,11830.0,9334.0,9711.0,11377.0,8845.0,10360.0,9173.0,11162.0,10979.0,10945.0,5563.0,7970.0,10706.0,8063.0,10352.0
1192.08,11911.0,9572.0,9999.0,11543.0,9073.0,10510.0,9385.0,11187.0,10455.0,10816.0,5634.0,8104.0,10378.0,7978.0,10230.0
1194.03,11861.0,9431.0,9653.0,11214.0,8909.0,10260.0,9186.0,10855.0,10554.0,10787.0,5284.0,7907.0,10091.0,8011.0,9904.0
1195.98,11797.0,9660.0,9663.0,11268.0,9120.0,9988.0,9066.0,10693.0,10272.0,10787.0,5504.0,7911.0,10084.0,8296.0,10116.0
1197.93,11662.0,9740.0,9535.0,10983.0,8884.0,10510.0,9132.0,10945.0,10515.0,11117.0,5326.0,7954.0,10314.0,7929.0,9796.0
1199.88,11614.0,9484.0,9625.0,11206.0,8797.0,10424.0,9196.0,10719.0,10540.0,10879.0,5501.0,8106.0,10014.0,8352.0,9634.0
1201.82,12086.0,9545.0,9679.0,11041.0,8876.0,10292.0,9132.0,10777.0,10051.0,10877.0,5065.0,7909.0,10101.0,7834.0,9866.0
1203.77,11277.0,9384.0,9473.0,11014.0,8669.0,10521.0,9128.0,10986.0,10270.0,10725.0,5193.0,7647.0,10267.0,8117.0,9675.0
1205.72,11726.0,9628.0,9596.0,11341.0,9147.0,10136.0,8816.0,10601.0,10146.0,10824.0,5230.0,7877.0,10424.0,8082.0,9682.0
1207.66,11716.0,9281.0,9566.0,10816.0,8576.0,10035.0,8732.0,10775.0,10319.0,10792.0,5090.0,7770.0,10255.0,7954.0,9556.0
1209.61,11564.0,9445.0,9410.0,10822.0,8726.0,10063.0,8966.0,10829.0,10271.0,10966.0,5146.0,7557.0,10164.0,7918.0,9439.0
1211.55,11431.0,9491.0,9343.0,10717.0,8700.0,9953.0,9020.0,10732.0,10468.0,10627.0,5185.0,7581.0,9817.0,8005.0,9560.0
1213.49,11607.0,9141.0,9334.0,10780.0,8515.0,10220.0,9024.0,10986.0,10008.0,10688.0,5255.0,7716.0,10163.0,7846.0,9456.0
1215.43,11644.0,9242.0,9239.0,10603.0,8351.0,9888.0,8818.0,10494.0,10241.0,10781.0,4998.0,7384.0,10119.0,7599.0,9559.0
1217.37,11456.0,9178.0,9299.0,10737.0,8485.0,10037.0,9079.0,10675.0,10273.0,10689.0,5057.0,7870.0,10103.0,7815.0,9367.0
1219.31,11598.0,9159.0,9425.0,10789.0,8549.0,9744.0,8869.0,10441.0,10424.0,10649.0,5216.0,7727.0,10371.0,7634.0,9650.0
1221.25,11502.0,9074.0,9415.0,10697.0,8870.0,9688.0,8723.0,10655.0,10525.0,10901.0,5270.0,7788.0,9604.0,7920.0,9501.0
1223.19,11610.0,9190.0,9281.0,11030.0,8684.0,9924.0,8570.0,10721.0,10197.0,10607.0,5182.0,7792.0,10208.0,7578.0,9666.0
1225.13,11505.0,9115.0,9313.0,10997.0,8463.0,9706.0,9001.0,10679.0,10057.0,10669.0,5113.0,7756.0,10326.0,8004.0,9495.0
1227.07,11426.0,9081.0,9127.0,10885.0,8507.0,9792.0,8674.0,10572.0,10278.0,10723.0,5064.0,7961.0,10292.0,7573.0,9954.0
1229.0,11619.0,9253.0,9226.0,10970.0,8315.0,9304.0,8432.0,10868.0,10438.0,10639.0,5179.0,7647.0,10264.0,7886.0,9556.0
1230.94,11385.0,8935.0,9209.0,10899.0,8155.0,9525.0,9013.0,10760.0,10089.0,10791.0,5331.0,7837.0,10306.0,7764.0,9735.0
1232.87,11467.0,9031.0,8847.0,10697.0,8282.0,9482.0,8933.0,10811.0,9897.0,10681.0,5203.0,7596.0,9871.0,7814.0,9414.0
1234.81,11920.0,9205.0,9083.0,10741.0,8462.0,9376.0,8682.0,10575.0,10293.0,10654.0,5196.0,7657.0,10389.0,8077.0,9601.0
1236.74,12286.0,9182.0,9421.0,10911.0,8604.0,9734.0,8948.0,11390.0,10355.0,10727.0,5052.0,7219.0,10336.0,7829.0,9673.0
1238.67,11670.0,9147.0,9247.0,10800.0,8540.0,9644.0,8888.0,10921.0,9956.0,10898.0,5154.0,7448.0,10420.0,7928.0,9390.0
1240.6,11836.0,9093.0,9356.0,11053.0,8494.0,9894.0,8791.0,11017.0,10290.0,10753.0,5306.0,7652.0,10115.0,7940.0,9385.0
1242.53,11997.0,9076.0,9421.0,10806.0,8499.0,9746.0,8625.0,11054.0,10466.0,10720.0,4882.0,7445.0,9970.0,7811.0,9431.0
1244.46,12115.0,9156.0,9483.0,10944.0,8554.0,9536.0,9017.0,10911.0,10272.0,10807.0,5024.0,7434.0,9978.0,7678.0,9437.0
1246.39,11488.0,9282.0,9343.0,10669.0,8228.0,9728.0,9093.0,11118.0,10491.0,10597.0,5205.0,7273.0,9919.0,7680.0,9162.0
1248.32,11728.0,9142.0,9298.0,10807.0,8666.0,9656.0,8764.0,11023.0,10341.0,10591.0,5075.0,7235.0,10107.0,7754.0,9183.0
1250.25,11770.0,9048.0,9319.0,10557.0,8230.0,9534.0,8634.0,10944.0,10374.0,10289.0,5288.0,7324.0,9900.0,7758.0,9210.0
1252.17,11753.0,9337.0,9657.0,10962.0,8348.0,9418.0,8878.0,10849.0,10347.0,10831.0,5110.0,7588.0,9863.0,7924.0,9493.0
1254.1,11695.0,9135.0,9429.0,11334.0,8304.0,9580.0,8632.0,11103.0,10379.0,10608.0,4911.0,7401.0,10043.0,7800.0,9392.0
1256.02,11675.0,9123.0,9489.0,10898.0,8345.0,9731.0,8604.0,11168.0,10458.0,10744.0,5008.0,7577.0,10014.0,7888.0,9665.0
1257.95,11647.0,9747.0,9330.0,10685.0,8310.0,9552.0,8508.0,10759.0,10452.0,10569.0,5413.0,7444.0,10085.0,7984.0,9457.0
1259.87,11394.0,9552.0,9398.0,10931.0,8393.0,9717.0,9037.0,11074.0,10696.0,10340.0,5200.0,7433.0,10166.0,7820.0,9607.0
1261.79,11436.0,9290.0,9394.0,10933.0,8443.0,9681.0,9021.0,11217.0,10751.0,10536.0,5269.0,7511.0,9971.0,7711.0,9640.0
1263.71,11537.0,9460.0,9634.0,11142.0,8582.0,9873.0,8924.0,11240.0,10693.0,10725.0,5268.0,7430.0,10005.0,7873.0,9493.0
1265.63,11592.0,9366.0,9627.0,10829.0,8512.0,10052.0,9084.0,11051.0,10648.0,10675.0,5233.0,7185.0,10238.0,7867.0,9427.0
1267.55,11601.0,9320.0,9381.0,10663.0,8367.0,9665.0,9116.0,10928.0,10657.0,10460.0,5177.0,7536.0,10226.0,7782.0,9607.0
1269.47,11476.0,9198.0,9543.0,10660.0,8543.0,10060.0,8966.0,10877.0,10834.0,10810.0,5297.0,7424.0,10449.0,7654.0,9709.0
1271.39,11290.0,9314.0,9477.0,10815.0,8442.0,9670.0,8817.0,10727.0,10606.0,10523.0,5180.0,7523.0,9963.0,7501.0,9595.0
1273.31,11546.0,9012.0,9585.0,10811.0,8707.0,9853.0,8827.0,10815.0,10620.0,10888.0,5345.0,7354.0,10326.0,8008.0,9810.0
1275.23,11638.0,9300.0,9587.0,10687.0,8561.0,9959.0,8949.0,10576.0,10337.0,10581.0,5250.0,7593.0,10023.0,7828.0,9530.0
1277.14,11693.0,9227.0,9383.0,10525.0,8582.0,9761.0,9105.0,10479.0,10676.0,10604.0,5159.0,7639.0,10082.0,7829.0,9235.0
1279.06,11977.0,8845.0,9340.0,10371.0,8574.0,9632.0,8776.0,10595.0,10078.0,10213.0,5195.0,7272.0,10473.0,7541.0,9503.0
1280.97,11764.0,9236.0,9431.0,10523.0,8286.0,9720.0,9006.0,10699.0,10339.0,10345.0,5532.0,7544.0,10366.0,7870.0,9636.0
1282.89,11956.0,9015.0,9649.0,10617.0,8342.0,9763.0,9100.0,10761.0,10255.0,10551.0,5361.0,7069.0,10181.0,7761.0,9411.0
1284.8,11707.0,9177.0,9493.0,10698.0,8439.0,9495.0,8933.0,10494.0,10312.0,10737.0,5408.0,7213.0,10202.0,7579.0,9421.0
1286.71,11970.0,8733.0,9204.0,10572.0,8601.0,9652.0,8746.0,10317.0,10425.0,10575.0,5287.0,7665.0,10330.0,7849.0,9561.0
1288.62,11679.0,9181.0,9271.0,10721.0,8289.0,9608.0,9067.0,10421.0,10122.0,10558.0,5216.0,7482.0,10393.0,7679.0,9571.0
1290.53,11833.0,9173.0,9243.0,10553.0,8804.0,9507.0,8961.0,10451.0,10037.0,10537.0,5390.0,7237.0,10635.0,7677.0,9704.0
1292.44,11807.0,9011.0,9291.0,10277.0,8396.0,9734.0,8954.0,10304.0,10296.0,10248.0,5372.0,7579.0,10547.0,7683.0,9566.0
1294.35,11737.0,8930.0,9219.0,10345.0,8530.0,9562.0,8529.0,10355.0,10363.0,10729.0,5140.0,7322.0,10424.0,7322.0,9619.0
1296.26,11712.0,9345.0,9339.0,10503.0,8616.0,9419.0,8768.0,10257.0,10334.0,10771.0,5281.0,7161.0,10435.0,7528.0,9610.0
1298.17,11858.0,9146.0,9458.0,10636.0,8334.0,9575.0,8793.0,10520.0,10131.0,10479.0,5013.0,7123.0,10487.0,7513.0,9751.0
1300.07,11604.0,9063.0,9361.0,10175.0,8178.0,9354.0,8718.0,10379.0,9876.0,10270.0,5277.0,7292.0,10267.0,7682.0,9492.0
1301.98,11661.0,9455.0,9369.0,10840.0,8592.0,9632.0,8876.0,10493.0,10165.0,10771.0,5196.0,7497.0,10377.0,7610.0,9599.0
1303.88,11383.0,9067.0,9174.0,10396.0,8226.0,9488.0,8810.0,10273.0,10053.0,10556.0,5196.0,7465.0,10269.0,7483.0,9584.0
1305.79,11286.0,9255.0,9110.0,9951.0,8086.0,9484.0,8888.0,10235.0,9962.0,10451.0,5359.0,7298.0,10377.0,7588.0,9494.0
1307.69,11650.0,8945.0,9077.0,10388.0,8633.0,9389.0,8925.0,10287.0,9907.0,10739.0,5305.0,7455.0,10092.0,7645.0,9357.0
1309.59,11150.0,9036.0,9231.0,10298.0,8506.0,9534.0,8730.0,10429.0,9768.0,10303.0,5406.0,7484.0,9994.0,7626.0,9350.0
1311.5,11364.0,8984.0,9376.0,10391.0,8181.0,9460.0,8800.0,10491.0,9827.0,10643.0,5301.0,7337.0,9822.0,7508.0,9455.0
1313.4,11311.0,8890.0,9209.0,10402.0,8214.0,9317.0,8708.0,10579.0,9790.0,10366.0,5104.0,7509.0,10048.0,7538.0,9369.0
1315.3,11367.0,9007.0,9481.0,10323.0,8395.0,9394.0,8732.0,10537.0,10172.0,10797.0,5391.0,7261.0,9956.0,7537.0,9283.0
1317.2,11283.0,9197.0,9179.0,10435.0,8337.0,9487.0,8966.0,10909.0,10128.0,10649.0,5244.0,7186.0,10028.0,7374.0,9347.0
1319.09,11499.0,8918.0,9229.0,10314.0,8620.0,9872.0,8793.0,10633.0,9812.0,10679.0,5205.0,7253.0,9875.0,7750.0,9403.0
1320.99,11154.0,9217.0,9247.0,10340.0,8306.0,9498.0,9077.0,10419.0,9898.0,10412.0,5153.0,7171.0,9674.0,7648.0,9227.0
1322.89,11407.0,9288.0,9343.0,10591.0,8246.0,9362.0,8889.0,10353.0,9926.0,10250.0,5280.0,7229.0,9996.0,7348.0,8999.0
1324.79,11417.0,9201.0,9236.0,10356.0,8271.0,9461.0,8817.0,10439.0,9894.0,10355.0,5196.0,7504.0,10083.0,7690.0,9563.0
1326.68,11470.0,9150.0,9375.0,10498.0,8608.0,9537.0,8748.0,10569.0,10049.0,10478.0,5162.0,7261.0,9807.0,7653.0,9512.0
1328.58,11948.0,9164.0,9651.0,10641.0,8618.0,9651.0,8841.0,10496.0,9917.0,10540.0,5368.0,7285.0,9834.0,7349.0,9649.0
1330.47,11997.0,9089.0,9620.0,10837.0,8499.0,9478.0,9029.0,10969.0,10112.0,10641.0,5424.0,7418.0,9791.0,7376.0,9541.0
1332.36,11809.0,9200.0,9263.0,10363.0,8729.0,9697.0,9177.0,10972.0,9993.0,10208.0,5208.0,7144.0,9913.0,7554.0,9675.0
1334.25,11819.0,8869.0,9507.0,10380.0,8735.0,9457.0,8905.0,10741.0,10018.0,10380.0,5383.0,7260.0,9941.0,7709.0,10006.0
1336.15,12111.0,9352.0,9654.0,10815.0,8823.0,9626.0,8918.0,11051.0,10192.0,10534.0,5316.0,7117.0,9877.0,7860.0,9950.0
1338.04,11935.0,9045.0,9669.0,10683.0,8594.0,9734.0,9062.0,11125.0,9979.0,10589.0,5192.0,7165.0,10077.0,7475.0,10007.0
1339.93,12054.0,9347.0,9545.0,10891.0,8667.0,9585.0,8996.0,11219.0,9984.0,10448.0,5423.0,7384.0,9874.0,7687.0,9978.0
1341.82,12259.0,9376.0,9715.0,10709.0,8445.0,9495.0,8833.0,10939.0,9782.0,10531.0,5393.0,7379.0,10022.0,7623.0,9985.0
1343.7,12475.0,10332.0,9719.0,10825.0,8853.0,9412.0,9160.0,11037.0,10218.0,10498.0,5226.0,7429.0,9809.0,7580.0,9811.0
1345.59,14220.0,11976.0,9610.0,11011.0,9087.0,9713.0,9156.0,11281.0,10199.0,10706.0,5335.0,7399.0,9706.0,7901.0,10110.0
1347.48,13985.0,12346.0,9709.0,10925.0,9030.0,9672.0,8819.0,11152.0,10454.0,10910.0,5475.0,7522.0,10271.0,7949.0,9821.0
1349.36,12031.0,9482.0,9489.0,10493.0,8780.0,9629.0,8787.0,11176.0,10298.0,10371.0,5728.0,7599.0,9879.0,7872.0,9947.0
1351.25,12086.0,9116.0,9503.0,10635.0,8549.0,9478.0,8839.0,10956.0,10516.0,10141.0,5487.0,7293.0,10031.0,7709.0,10068.0
1353.13,11913.0,9274.0,9172.0,10655.0,8881.0,9676.0,8837.0,11347.0,10728.0,10353.0,5417.0,7478.0,9908.0,7806.0,9985.0
1355.02,12405.0,9418.0,9511.0,10854.0,8751.0,9566.0,9066.0,10913.0,10789.0,10402.0,5499.0,7711.0,10118.0,7878.0,10035.0
1356.9,12083.0,9056.0,9583.0,10840.0,8635.0,9642.0,9042.0,11033.0,10824.0,10181.0,5506.0,7623.0,9956.0,7613.0,9931.0
1358.78,12129.0,9352.0,9766.0,10847.0,8941.0,9522.0,8905.0,10949.0,10555.0,10452.0,5430.0,7713.0,10136.0,7471.0,10509.0
1360.66,11966.0,9221.0,9803.0,10567.0,8860.0,9820.0,8852.0,11083.0,10756.0,10585.0,5548.0,7642.0,10160.0,7605.0,10253.0
1362.55,12065.0,9421.0,9217.0,10728.0,8834.0,9658.0,9050.0,10985.0,11179.0,10337.0,5645.0,7257.0,10157.0,7613.0,10175.0
1364.42,12017.0,9293.0,9517.0,10641.0,8817.0,9696.0,8803.0,10907.0,10925.0,10446.0,5593.0,7389.0,9808.0,7452.0,10261.0
1366.3,12071.0,9173.0,9452.0,10873.0,8720.0,9617.0,8693.0,10892.0,10718.0,10448.0,5302.0,7105.0,9993.0,7372.0,10131.0
1368.18,12246.0,9273.0,9716.0,10581.0,8548.0,9558.0,8912.0,10985.0,10881.0,10182.0,5382.0,7342.0,9811.0,7442.0,9936.0
1370.06,12012.0,9133.0,9716.0,10465.0,8809.0,9912.0,8744.0,10959.0,10474.0,10374.0,5445.0,7490.0,9728.0,7474.0,10332.0
1371.94,11993.0,9237.0,9381.0,10467.0,8777.0,9769.0,8707.0,10698.0,10665.0,9930.0,5488.0,7532.0,9989.0,7529.0,9960.0
1373.81,12085.0,9039.0,9395.0,10339.0,8532.0,9688.0,8547.0,10695.0,10152.0,9878.0,5068.0,7200.0,9949.0,7560.0,9947.0
1375.69,12459.0,9136.0,9411.0,10501.0,8688.0,9794.0,8927.0,10695.0,10541.0,10270.0,5290.0,7281.0,9518.0,7196.0,10380.0
1377.56,11849.0,8846.0,9487.0,10233.0,8385.0,9586.0,8572.0,10415.0,10094.0,10306.0,5311.0,7602.0,9785.0,7279.0,9863.0
1379.44,12312.0,8787.0,9450.0,10421.0,8605.0,9450.0,8423.0,10049.0,10219.0,10414.0,5499.0,7464.0,9630.0,7743.0,9904.0
1381.31,11831.0,9115.0,9357.0,10491.0,8631.0,9438.0,8602.0,10389.0,10310.0,9957.0,5162.0,7174.0,9625.0,7302.0,9814.0
1383.18,11830.0,9247.0,9456.0,10219.0,8357.0,9633.0,8662.0,10370.0,10304.0,10083.0,5279.0,7353.0,9561.0,7175.0,9807.0
1385.05,11676.0,8834.0,9222.0,10332.0,8538.0,9545.0,8566.0,10315.0,10538.0,10183.0,5169.0,7157.0,9646.0,7285.0,9681.0
1386.92,11575.0,8837.0,9083.0,10246.0,8544.0,9057.0,8626.0,10139.0,10145.0,9935.0,4997.0,7072.0,9533.0,7297.0,9510.0
1388.79,11580.0,8967.0,9210.0,10235.0,8498.0,9282.0,8530.0,10208.0,10229.0,9862.0,5150.0,7044.0,9694.0,7275.0,9481.0
1390.66,11251.0,8978.0,8987.0,10131.0,8209.0,9253.0,8330.0,10255.0,10038.0,9589.0,5092.0,7206.0,9280.0,7325.0,9562.0
1392.53,11242.0,8829.0,8962.0,9987.0,8160.0,9419.0,8735.0,10240.0,10235.0,9794.0,4998.0,7188.0,9442.0,7143.0,9262.0
1394.4,11329.0,8794.0,9361.0,10281.0,8256.0,8930.0,8323.0,10290.0,9833.0,9777.0,5014.0,7066.0,9203.0,7070.0,9627.0
1396.26,10797.0,8907.0,8897.0,9763.0,8095.0,9321.0,8364.0,10019.0,9653.0,9361.0,4924.0,6957.0,9263.0,7144.0,9038.0
1398.13,10994.0,8595.0,9052.0,9760.0,8024.0,9010.0,8569.0,10006.0,9566.0,9771.0,4932.0,6987.0,8999.0,6819.0,9383.0
1399.99,11290.0,8421.0,9072.0,10233.0,8308.0,8914.0,8581.0,9934.0,9747.0,9528.0,4831.0,6691.0,8930.0,6948.0,9426.0
1401.86,10682.0,8232.0,8722.0,9595.0,7800.0,9244.0,8470.0,9925.0,9204.0,9768.0,4983.0,6725.0,9164.0,6841.0,9336.0
1403.72,11063.0,8475.0,9185.0,9743.0,7975.0,8954.0,8349.0,9927.0,9365.0,9621.0,4819.0,6492.0,9125.0,6684.0,9044.0
1405.58,10539.0,8101.0,8539.0,9545.0,7876.0,8738.0,8174.0,9675.0,9417.0,9312.0,4471.0,6470.0,8684.0,6579.0,8861.0
1407.45,10849.0,8320.0,8735.0,9665.0,7651.0,8917.0,8015.0,9608.0,9240.0,9271.0,4812.0,6702.0,8874.0,6549.0,8902.0
1409.31,10352.0,8239.0,8728.0,9568.0,7793.0,8723.0,8321.0,9727.0,9269.0,9388.0,4749.0,6466.0,8655.0,6813.0,8848.0
1411.17,10339.0,8147.0,8590.0,9466.0,7612.0,9040.0,7850.0,9666.0,9116.0,9080.0,4850.0,6648.0,8847.0,6601.0,8514.0
1413.03,10443.0,8116.0,8472.0,9407.0,7713.0,8548.0,7963.0,9593.0,9221.0,9526.0,4717.0,6488.0,8733.0,6230.0,8835.0
1414.89,10327.0,8015.0,8589.0,9542.0,7600.0,8657.0,7879.0,9545.0,9080.0,9379.0,4774.0,6535.0,8900.0,6610.0,8787.0
1416.75,10338.0,7962.0,8358.0,9198.0,7553.0,8716.0,7711.0,9595.0,9305.0,9055.0,4682.0,6647.0,8662.0,6704.0,8660.0
1418.6,10236.0,7873.0,8242.0,9398.0,7571.0,8770.0,7966.0,9681.0,9137.0,9058.0,4686.0,6825.0,8725.0,6719.0,8881.0
1420.46,10362.0,8022.0,8564.0,9348.0,7288.0,8470.0,7458.0,9233.0,9127.0,9164.0,4736.0,6412.0,8655.0,6501.0,8577.0
1422.32,9842.0,7883.0,8172.0,9075.0,7612.0,8378.0,7760.0,9111.0,8979.0,8967.0,4638.0,6428.0,8697.0,6626.0,8576.0
1424.17,9934.0,7748.0,8151.0,9156.0,7316.0,8690.0,7752.0,8885.0,9051.0,9064.0,4316.0,6678.0,8398.0,6544.0,8564.0
1426.03,9865.0,7987.0,7901.0,9043.0,7202.0,8502.0,7535.0,9047.0,8717.0,8737.0,4225.0,6634.0,8369.0,6562.0,8436.0
1427.88,10432.0,7816.0,8238.0,9072.0,7301.0,8490.0,7423.0,9111.0,8822.0,8653.0,4732.0,6379.0,8467.0,6864.0,8774.0
1429.73,9913.0,7703.0,8309.0,9139.0,7207.0,8665.0,7548.0,9329.0,8984.0,8745.0,4360.0,6314.0,8528.0,6543.0,9069.0
1431.58,10030.0,7709.0,8148.0,9144.0,7330.0,8546.0,7345.0,9219.0,8807.0,8670.0,4588.0,6503.0,8489.0,6576.0,8661.0
1433.43,9779.0,7987.0,7966.0,8903.0,7436.0,8394.0,7450.0,8925.0,8662.0,8757.0,4437.0,6554.0,8995.0,6595.0,8484.0
1435.29,9980.0,7914.0,8022.0,9088.0,7328.0,8801.0,7805.0,8971.0,8741.0,8998.0,4570.0,6659.0,8480.0,6811.0,8565.0
1437.14,9895.0,7663.0,7905.0,8787.0,7287.0,8390.0,7321.0,9043.0,8314.0,8853.0,4362.0,6155.0,8735.0,6493.0,8373.0
1438.98,9591.0,7733.0,7891.0,8897.0,7078.0,8193.0,7367.0,8971.0,8743.0,8459.0,4395.0,6291.0,8531.0,6643.0,8179.0
1440.83,9697.0,7542.0,7890.0,9146.0,7331.0,8512.0,7498.0,9001.0,8316.0,8915.0,4249.0,6387.0,8566.0,6635.0,8369.0
1442.68,9564.0,7795.0,8168.0,9022.0,7120.0,8405.0,7385.0,8927.0,8314.0,8666.0,4321.0,6196.0,8585.0,6505.0,8300.0
1444.53,9405.0,7528.0,7805.0,8827.0,6819.0,8044.0,7217.0,8856.0,8241.0,8571.0,4480.0,6717.0,8399.0,6537.0,8094.0
1446.37,9540.0,7471.0,7851.0,8649.0,6803.0,7968.0,7114.0,8713.0,8243.0,8215.0,4355.0,6473.0,8494.0,6626.0,7878.0
1448.22,9126.0,7520.0,7722.0,8612.0,6706.0,7684.0,7035.0,8687.0,8251.0,8248.0,4184.0,5993.0,8180.0,6177.0,8028.0
1450.06,9326.0,7534.0,7760.0,8448.0,6986.0,7874.0,7086.0,8707.0,8086.0,8383.0,4243.0,6262.0,8373.0,6173.0,7674.0
1451.91,9231.0,7235.0,7816.0,8702.0,7018.0,7760.0,7031.0,8576.0,8216.0,8204.0,4308.0,6187.0,8010.0,6490.0,7718.0
1453.75,9129.0,7355.0,7767.0,8436.0,6794.0,7928.0,7033.0,8419.0,7966.0,8360.0,4338.0,6093.0,8002.0,6163.0,7813.0
1455.59,9137.0,7118.0,7578.0,8483.0,6899.0,7950.0,6862.0,8301.0,8290.0,8141.0,3997.0,6196.0,8261.0,6124.0,7613.0
1457.43,9014.0,7143.0,7460.0,8452.0,6712.0,7929.0,6943.0,8277.0,8030.0,8085.0,3945.0,6087.0,8240.0,5842.0,7502.0
1459.27,9142.0,7009.0,7340.0,8481.0,6628.0,7762.0,6686.0,8144.0,7758.0,8025.0,3901.0,5851.0,7695.0,5730.0,7478.0
1461.11,8744.0,7438.0,7170.0,8231.0,6636.0,7561.0,6871.0,8283.0,7687.0,7958.0,4111.0,6276.0,8051.0,6017.0,7626.0
1462.95,8793.0,6984.0,6948.0,8325.0,6547.0,7298.0,6713.0,8154.0,7768.0,7946.0,4105.0,6105.0,7632.0,6110.0,7686.0
1464.79,8631.0,7260.0,7038.0,7990.0,6441.0,7390.0,6809.0,7853.0,7954.0,7993.0,3781.0,6058.0,7638.0,5641.0,7026.0
1466.63,9048.0,6925.0,7200.0,7789.0,6488.0,7390.0,6512.0,7795.0,7812.0,8012.0,3865.0,5882.0,7504.0,5710.0,7408.0
1468.47,8594.0,6680.0,7064.0,7754.0,6520.0,7288.0,6671.0,7889.0,7581.0,7496.0,3728.0,5955.0,7596.0,5859.0,6884.0
1470.3,8706.0,6849.0,6712.0,7835.0,6214.0,7141.0,6544.0,7762.0,7869.0,7707.0,3811.0,5845.0,7609.0,5701.0,7004.0
1472.14,8833.0,6840.0,6931.0,7701.0,6259.0,7014.0,6400.0,7905.0,7866.0,7690.0,3638.0,5948.0,7674.0,5617.0,7034.0
1473.97,8697.0,6726.0,6812.0,7624.0,6107.0,6939.0,6443.0,7661.0,7893.0,7632.0,3695.0,5891.0,7742.0,5703.0,7118.0
1475.81,9002.0,6726.0,6984.0,7743.0,6330.0,6964.0,6597.0,7775.0,7695.0,7762.0,3920.0,5900.0,7460.0,5485.0,7022.0
1477.64,8989.0,6887.0,7028.0,7616.0,6466.0,7146.0,6649.0,7783.0,7631.0,7778.0,3689.0,5904.0,7531.0,5637.0,7142.0
1479.47,8530.0,6876.0,6838.0,7751.0,6305.0,7024.0,6606.0,7635.0,7661.0,7639.0,3538.0,5682.0,7215.0,5304.0,7248.0
1481.3,8607.0,6758.0,6928.0,7837.0,6119.0,6981.0,6595.0,7837.0,7540.0,7490.0,3452.0,5541.0,7538.0,5442.0,7060.0
1483.13,8773.0,6802.0,6702.0,7507.0,6000.0,6780.0,6431.0,7721.0,7789.0,7368.0,3381.0,5626.0,7543.0,5525.0,7093.0
1484.96,8514.0,6521.0,6814.0,7742.0,6187.0,6950.0,6497.0,7884.0,7651.0,7559.0,3688.0,5787.0,7599.0,5715.0,6958.0
1486.79,8589.0,6473.0,6753.0,7589.0,6371.0,6833.0,6361.0,7489.0,7480.0,7429.0,3647.0,5695.0,7246.0,5510.0,7083.0
1488.62,8331.0,6686.0,6517.0,7539.0,5979.0,6906.0,6323.0,7761.0,7371.0,7290.0,3715.0,5821.0,6969.0,5788.0,6819.0
1490.45,8710.0,6732.0,6888.0,7365.0,6195.0,6682.0,6459.0,7583.0,7581.0,7651.0,3627.0,5743.0,7257.0,5632.0,7048.0
1492.28,8459.0,6533.0,6734.0,7490.0,6118.0,6947.0,6331.0,7937.0,7664.0,7350.0,3736.0,5763.0,7381.0,5515.0,6886.0
1494.1,8263.0,6691.0,6625.0,7421.0,6117.0,6837.0,6226.0,7820.0,7445.0,7191.0,3493.0,5876.0,7387.0,5475.0,6720.0
1495.93,8672.0,6521.0,6686.0,7516.0,6107.0,6965.0,6339.0,7529.0,7419.0,7499.0,3587.0,5809.0,7571.0,5650.0,7074.0
1497.75,8391.0,6601.0,6558.0,7526.0,5887.0,7131.0,6364.0,7684.0,7403.0,7270.0,3486.0,5658.0,7415.0,5238.0,6887.0
1499.58,8492.0,6439.0,6474.0,7492.0,5830.0,7258.0,6565.0,8045.0,7448.0,7261.0,3624.0,5833.0,7389.0,5552.0,6582.0
1501.4,8654.0,6573.0,6419.0,7375.0,5789.0,6708.0,6501.0,7679.0,7540.0,7385.0,3584.0,5540.0,7212.0,5228.0,6953.0
1503.22,8451.0,6586.0,6409.0,7293.0,6038.0,6961.0,6302.0,7607.0,7294.0,7249.0,3666.0,5840.0,7199.0,5780.0,6867.0
1505.05,8535.0,6583.0,6561.0,7390.0,6011.0,6925.0,6496.0,8047.0,7557.0,7677.0,3679.0,5680.0,7104.0,5578.0,6844.0
1506.87,8500.0,6236.0,6506.0,7420.0,6178.0,7102.0,6558.0,7857.0,7388.0,7465.0,3606.0,5551.0,7445.0,5439.0,6822.0
1508.69,8257.0,6299.0,6357.0,7177.0,5705.0,6652.0,6392.0,7650.0,7345.0,7122.0,3651.0,5540.0,7419.0,5600.0,6521.0
1510.51,8326.0,6386.0,6371.0,7346.0,5748.0,6850.0,6223.0,7861.0,7375.0,7192.0,3490.0,5481.0,7229.0,5548.0,6624.0
1512.33,8308.0,6463.0,6594.0,7248.0,5662.0,6732.0,6370.0,7795.0,7261.0,7282.0,3547.0,5625.0,7133.0,5562.0,6714.0
1514.14,8580.0,6480.0,6453.0,7281.0,5877.0,7037.0,6194.0,7751.0,7425.0,7436.0,3619.0,5905.0,7225.0,5583.0,6883.0
1515.96,8461.0,6309.0,6407.0,7495.0,6110.0,6888.0,6274.0,8123.0,7257.0,7389.0,3828.0,5640.0,7450.0,5602.0,6889.0
1517.78,8469.0,6582.0,6235.0,7299.0,5910.0,6999.0,6302.0,7934.0,7355.0,7227.0,3660.0,5758.0,7134.0,5493.0,6691.0
1519.59,8456.0,6375.0,6301.0,7381.0,5934.0,6826.0,6350.0,7918.0,7042.0,7188.0,3619.0,5569.0,7572.0,5359.0,6725.0
1521.41,8313.0,6367.0,6587.0,7641.0,6159.0,6925.0,6175.0,7969.0,7457.0,7483.0,3711.0,5828.0,7312.0,5622.0,6916.0
1523.22,8455.0,6599.0,6861.0,7624.0,6125.0,6892.0,6438.0,8069.0,7397.0,7542.0,3673.0,5658.0,7509.0,5448.0,6782.0
1525.04,8171.0,6710.0,6377.0,7531.0,5892.0,6840.0,6234.0,7657.0,7683.0,7105.0,3655.0,5823.0,7199.0,5646.0,6810.0
1526.85,8084.0,6420.0,6552.0,7576.0,5899.0,6903.0,6430.0,8013.0,7766.0,7309.0,3725.0,5888.0,7500.0,5484.0,6604.0
1528.66,8502.0,6275.0,6645.0,7321.0,5770.0,7071.0,6519.0,8106.0,7577.0,7557.0,3811.0,5536.0,7662.0,5418.0,6783.0
1530.47,7969.0,6432.0,6249.0,7049.0,5965.0,7092.0,6411.0,8018.0,7357.0,7279.0,3750.0,5728.0,7247.0,5653.0,6813.0
1532.29,8363.0,6534.0,6572.0,7373.0,5985.0,7030.0,6187.0,7890.0,7744.0,7120.0,3798.0,5974.0,7315.0,5550.0,6827.0
1534.1,8315.0,6459.0,6489.0,7373.0,5831.0,7200.0,6454.0,8060.0,7695.0,7376.0,3792.0,5833.0,7358.0,5561.0,6929.0
1535.9,8551.0,6496.0,6473.0,7481.0,5966.0,7106.0,6282.0,7831.0,7643.0,7363.0,3761.0,5844.0,7551.0,5664.0,6971.0
1537.71,8658.0,7100.0,6526.0,7282.0,5900.0,7006.0,6150.0,8092.0,7574.0,7521.0,3765.0,5652.0,7694.0,5696.0,6871.0
1539.52,9658.0,7719.0,6425.0,7364.0,6102.0,7028.0,6152.0,8094.0,7480.0,7611.0,3682.0,5564.0,7716.0,5552.0,6824.0
1541.33,9824.0,8011.0,6539.0,7485.0,5895.0,6800.0,6144.0,7957.0,7618.0,7953.0,3808.0,5572.0,7643.0,5667.0,7070.0
1543.13,8552.0,6384.0,6427.0,7395.0,5823.0,6838.0,6070.0,7765.0,7373.0,7558.0,3757.0,5746.0,7730.0,5463.0,7009.0
1544.94,8497.0,6398.0,6317.0,7481.0,5853.0,7102.0,6336.0,8035.0,7445.0,7320.0,3591.0,5641.0,7787.0,5261.0,6863.0
1546.74,8198.0,6298.0,6401.0,7213.0,5631.0,6694.0,6113.0,8138.0,7378.0,7423.0,3924.0,5791.0,7490.0,5428.0,6865.0
1548.55,8652.0,6464.0,6370.0,7357.0,5757.0,6580.0,6104.0,7604.0,7485.0,7467.0,3765.0,5740.0,7458.0,5435.0,6823.0
1550.35,8290.0,6424.0,6537.0,7367.0,5725.0,6755.0,6022.0,7845.0,7311.0,7613.0,3772.0,5562.0,7354.0,5360.0,6797.0
1552.15,8383.0,6300.0,6755.0,7278.0,5850.0,6734.0,6133.0,7993.0,7346.0,7371.0,3825.0,5531.0,7612.0,5313.0,6753.0
1553.96,8362.0,6261.0,6396.0,7306.0,5864.0,6752.0,6147.0,8012.0,7462.0,7504.0,3899.0,5737.0,7298.0,5604.0,6788.0
1555.76,8238.0,6348.0,6414.0,7438.0,5741.0,6742.0,6040.0,7862.0,7479.0,7340.0,3747.0,5380.0,7550.0,5163.0,6670.0
1557.56,8145.0,6310.0,6393.0,7319.0,5737.0,6782.0,6087.0,7934.0,7475.0,7179.0,3851.0,5789.0,7578.0,5271.0,6441.0
1559.36,8315.0,6243.0,6385.0,7209.0,5745.0,6580.0,6050.0,7587.0,7583.0,7305.0,3875.0,5503.0,7442.0,5461.0,6513.0
1561.16,8299.0,6238.0,6451.0,7363.0,5605.0,6594.0,5912.0,7634.0,7176.0,7433.0,3757.0,5495.0,7381.0,5326.0,6403.0
1562.96,8073.0,6265.0,6257.0,7051.0,5518.0,6432.0,5902.0,7508.0,7379.0,7079.0,3420.0,5388.0,7431.0,5125.0,6426.0
1564.75,8161.0,6323.0,6403.0,7132.0,5708.0,6405.0,5984.0,7488.0,7412.0,6984.0,3536.0,5619.0,7330.0,5147.0,6309.0
1566.55,8451.0,6266.0,6326.0,7236.0,5698.0,6436.0,6158.0,7605.0,7375.0,7339.0,3525.0,5482.0,7210.0,4895.0,6467.0
1568.35,8129.0,6077.0,6133.0,7313.0,5561.0,6409.0,6059.0,7729.0,7609.0,7145.0,3709.0,5379.0,6946.0,5235.0,6515.0
1570.14,8245.0,6173.0,6384.0,7183.0,5562.0,6569.0,5747.0,7353.0,7542.0,7206.0,3502.0,5306.0,7458.0,4957.0,6629.0
1571.94,8135.0,6290.0,6315.0,6943.0,5471.0,6328.0,5946.0,7305.0,7689.0,6735.0,3605.0,5739.0,7379.0,5238.0,6573.0
1573.73,8061.0,6237.0,6425.0,6963.0,5560.0,6653.0,5914.0,7563.0,7357.0,7036.0,3531.0,5334.0,7133.0,5264.0,6671.0
1575.52,8097.0,6015.0,6179.0,6895.0,5597.0,6518.0,5823.0,7050.0,7305.0,7042.0,3652.0,5234.0,7254.0,5052.0,6563.0
1577.31,7976.0,6025.0,6359.0,6675.0,5516.0,6706.0,6019.0,7238.0,7231.0,7063.0,3533.0,5233.0,7031.0,4912.0,6341.0
1579.11,8115.0,5941.0,6294.0,6996.0,5565.0,6547.0,5909.0,7656.0,7319.0,7093.0,3726.0,5406.0,7244.0,5136.0,6702.0
1580.9,8176.0,5916.0,6055.0,6998.0,5310.0,6368.0,5872.0,7346.0,7421.0,6862.0,3423.0,5359.0,7096.0,5039.0,6528.0
1582.69,7978.0,5981.0,6112.0,6903.0,5321.0,6308.0,5827.0,7494.0,7042.0,6771.0,3579.0,5277.0,7353.0,4872.0,6465.0
1584.48,8110.0,6075.0,6125.0,6812.0,5469.0,6243.0,5580.0,7180.0,6967.0,6884.0,3585.0,5042.0,7187.0,4751.0,6654.0
1586.27,8142.0,6003.0,6073.0,6990.0,5226.0,6295.0,5801.0,7316.0,7137.0,6732.0,3458.0,5377.0,7083.0,4996.0,6454.0
1588.05,7934.0,6315.0,5954.0,6646.0,5337.0,6364.0,5794.0,7369.0,6975.0,6758.0,3413.0,5260.0,6832.0,4981.0,6310.0
1589.84,8129.0,6053.0,6254.0,6699.0,5459.0,6239.0,5896.0,7270.0,6979.0,6605.0,3440.0,5047.0,6883.0,4741.0,6521.0
1591.63,7882.0,5797.0,6247.0,6706.0,5236.0,6137.0,5935.0,7485.0,6924.0,6748.0,3492.0,5441.0,6944.0,4849.0,6512.0
1593.41,8161.0,5976.0,6299.0,7135.0,5483.0,6091.0,5762.0,7426.0,6911.0,6883.0,3717.0,5373.0,6843.0,4952.0,6425.0
1595.2,7974.0,5723.0,6280.0,6890.0,5378.0,5971.0,5931.0,7215.0,6965.0,6821.0,3620.0,5144.0,6820.0,4843.0,6450.0
1596.98,7814.0,5909.0,6080.0,6776.0,5074.0,6067.0,5912.0,7358.0,6983.0,6646.0,3510.0,5015.0,6966.0,4856.0,6458.0
1598.77,8183.0,6057.0,6224.0,6871.0,5443.0,6040.0,5533.0,7232.0,7058.0,6664.0,3622.0,5186.0,6737.0,4706.0,6386.0
1600.55,7856.0,5953.0,6312.0,6758.0,5368.0,5788.0,5516.0,7114.0,6877.0,6698.0,3576.0,5003.0,6565.0,4843.0,6460.0
1602.33,8131.0,5908.0,6429.0,7055.0,5371.0,6138.0,5532.0,7098.0,7053.0,6611.0,3457.0,5109.0,6882.0,4763.0,6331.0
1604.11,7732.0,5999.0,6266.0,6634.0,5178.0,5958.0,5617.0,6870.0,6789.0,6636.0,3432.0,5307.0,6534.0,4894.0,6530.0
1605.89,7753.0,5777.0,6205.0,6632.0,5129.0,5812.0,5703.0,6906.0,6903.0,6395.0,3402.0,5197.0,6735.0,4778.0,6297.0
1607.67,7780.0,5937.0,6210.0,6593.0,5289.0,5770.0,5382.0,6865.0,6725.0,6425.0,3595.0,5169.0,6664.0,4976.0,5922.0
1609.45,7340.0,5663.0,6301.0,6564.0,5057.0,5742.0,5687.0,6795.0,6680.0,6348.0,3413.0,4864.0,6496.0,4636.0,6146.0
1611.23,7466.0,5649.0,5970.0,6534.0,4984.0,5759.0,5296.0,6569.0,6773.0,6260.0,3208.0,4826.0,6495.0,4646.0,5859.0
1613.01,7255.0,5486.0,5537.0,6045.0,4831.0,5549.0,5370.0,6316.0,6625.0,6278.0,3344.0,4646.0,6253.0,4395.0,5809.0
1614.79,7106.0,5583.0,5621.0,5987.0,4870.0,5378.0,5294.0,6416.0,6453.0,5966.0,3079.0,4647.0,6146.0,4096.0,5726.0
1616.56,7310.0,5575.0,5494.0,6361.0,4858.0,5566.0,5103.0,6122.0,6574.0,6057.0,3286.0,4580.0,5832.0,4424.0,5784.0
1618.34,6960.0,5467.0,5472.0,6144.0,4854.0,5320.0,5185.0,6223.0,6025.0,5882.0,3234.0,4784.0,5678.0,4228.0,5684.0
1620.11,6784.0,5291.0,5588.0,6097.0,4963.0,5397.0,5076.0,6077.0,6402.0,6113.0,3245.0,4825.0,5978.0,4293.0,5701.0
1621.89,6943.0,5477.0,5518.0,6201.0,4873.0,5552.0,5026.0,6090.0,6035.0,6069.0,3107.0,4609.0,5855.0,4314.0,5653.0
1623.66,6862.0,5197.0,5547.0,6051.0,4905.0,5479.0,4915.0,6081.0,5929.0,5822.0,3107.0,4409.0,5915.0,4140.0,5460.0
1625.43,6730.0,5059.0,5513.0,5985.0,4903.0,5338.0,5031.0,5968.0,5929.0,5756.0,2941.0,4373.0,5680.0,4016.0,5382.0
1627.2,6531.0,5109.0,5242.0,5938.0,4632.0,5518.0,4928.0,5860.0,6004.0,5583.0,2950.0,4204.0,5559.0,4263.0,5268.0
1628.98,6400.0,5186.0,5269.0,6062.0,4564.0,5400.0,4969.0,5944.0,5853.0,5704.0,2927.0,4093.0,5597.0,3998.0,5536.0
1630.75,6277.0,5197.0,5211.0,5653.0,4409.0,5182.0,4898.0,5754.0,5799.0,5387.0,3013.0,4251.0,5434.0,4052.0,4992.0
1632.52,6125.0,5010.0,5183.0,5886.0,4616.0,5172.0,4816.0,5730.0,5857.0,5583.0,2953.0,4087.0,5423.0,3820.0,5223.0
1634.29,6358.0,5077.0,5135.0,5898.0,4675.0,5040.0,4702.0,5622.0,5641.0,5511.0,2836.0,4035.0,5290.0,3908.0,5015.0
1636.05,6329.0,4769.0,5188.0,5850.0,4561.0,5165.0,4754.0,5846.0,5697.0,5619.0,2804.0,4015.0,5374.0,4009.0,5089.0
1637.82,6045.0,4973.0,5132.0,5761.0,4392.0,4903.0,4571.0,5613.0,5712.0,5255.0,2506.0,3876.0,4836.0,3680.0,4850.0
1639.59,6161.0,4683.0,5226.0,5863.0,4439.0,4949.0,4811.0,5534.0,5498.0,5365.0,2791.0,3978.0,5369.0,3733.0,5094.0
1641.35,5900.0,4883.0,4805.0,5611.0,4327.0,4854.0,4602.0,5512.0,5657.0,5093.0,2530.0,3816.0,5321.0,3689.0,4678.0
1643.12,5640.0,4795.0,4949.0,5447.0,4405.0,4773.0,4507.0,5473.0,5479.0,5345.0,2596.0,3532.0,5061.0,3569.0,4673.0
1644.88,6001.0,4573.0,4708.0,5351.0,4189.0,4863.0,4550.0,5426.0,5340.0,5037.0,2611.0,3544.0,5035.0,3739.0,4815.0
1646.65,5805.0,4763.0,4762.0,5219.0,4337.0,4794.0,4637.0,5587.0,5341.0,5126.0,2638.0,3596.0,4782.0,3702.0,4709.0
1648.41,5782.0,4470.0,4822.0,5247.0,4171.0,4640.0,4226.0,4917.0,5302.0,5012.0,2674.0,3585.0,4806.0,3565.0,4657.0
1650.17,5543.0,4416.0,4819.0,5413.0,4303.0,4559.0,4263.0,5335.0,5249.0,5121.0,2473.0,3592.0,4645.0,3461.0,4726.0
1651.94,5543.0,4280.0,4859.0,5317.0,4291.0,4640.0,4266.0,5124.0,5146.0,4911.0,2498.0,3357.0,4646.0,3516.0,4606.0
1653.7,5185.0,4528.0,4393.0,5145.0,3999.0,4367.0,4296.0,4915.0,5096.0,4748.0,2720.0,3365.0,4639.0,3470.0,4440.0
1655.46,5229.0,4447.0,4598.0,5008.0,4077.0,4617.0,4070.0,5106.0,5162.0,4691.0,2340.0,3089.0,4581.0,3358.0,4496.0
1657.22,5478.0,4386.0,4590.0,5192.0,4045.0,4456.0,4125.0,5002.0,4937.0,4793.0,2443.0,3259.0,4262.0,3313.0,4446.0
1658.98,5277.0,4188.0,4647.0,4834.0,3955.0,4324.0,4287.0,5014.0,5026.0,4755.0,2435.0,3081.0,4431.0,3577.0,4356.0
1660.74,5109.0,4077.0,4246.0,4876.0,4011.0,4571.0,4217.0,5034.0,4842.0,4515.0,2415.0,3097.0,4341.0,3389.0,4305.0
1662.49,5105.0,4281.0,4226.0,4888.0,3773.0,4454.0,4278.0,4984.0,4822.0,4665.0,2295.0,3138.0,4250.0,3349.0,4364.0
1664.25,4857.0,4091.0,4284.0,4552.0,3917.0,4321.0,3941.0,4837.0,4846.0,4389.0,2185.0,2878.0,4346.0,3198.0,4128.0
1666.01,5327.0,4227.0,4590.0,4834.0,3981.0,4319.0,4123.0,4776.0,4667.0,4722.0,2353.0,2949.0,4156.0,3373.0,4381.0
1667.76,5015.0,4238.0,4454.0,4905.0,3987.0,4251.0,4245.0,4840.0,4786.0,4437.0,2303.0,2912.0,4242.0,3163.0,4243.0
1669.52,5083.0,4033.0,4455.0,4841.0,3943.0,4203.0,3833.0,4684.0,4522.0,4585.0,2422.0,2738.0,4173.0,3288.0,4117.0
1671.27,4999.0,4149.0,4343.0,4622.0,3971.0,4031.0,3876.0,4785.0,4497.0,4440.0,2077.0,2773.0,4054.0,3196.0,4112.0
1673.02,4851.0,3925.0,4034.0,4758.0,3853.0,4014.0,3893.0,4555.0,4587.0,4232.0,2124.0,2903.0,4183.0,3053.0,4169.0
1674.78,4703.0,3903.0,4192.0,4712.0,3693.0,4081.0,3887.0,4511.0,4375.0,4514.0,2112.0,2813.0,3879.0,3065.0,3985.0
1676.53,4914.0,3840.0,4146.0,4648.0,3631.0,4031.0,3729.0,4459.0,4320.0,4447.0,2308.0,2786.0,3972.0,3256.0,4088.0
1678.28,4683.0,3715.0,4192.0,4622.0,3777.0,4034.0,3819.0,4341.0,4407.0,4183.0,2339.0,2861.0,3904.0,3190.0,4043.0
1680.03,4755.0,3674.0,4137.0,4515.0,3632.0,4046.0,3957.0,4433.0,4411.0,4300.0,2247.0,2742.0,3832.0,2764.0,3940.0
1681.78,4809.0,3899.0,4079.0,4619.0,3739.0,3685.0,3813.0,4396.0,4309.0,4257.0,2164.0,2776.0,3912.0,3027.0,3825.0
1683.53,4499.0,3961.0,4026.0,4520.0,3643.0,3873.0,3825.0,4515.0,4236.0,4475.0,2272.0,2725.0,3884.0,3140.0,4086.0
1685.28,4909.0,3677.0,4214.0,4389.0,3621.0,3711.0,3729.0,4423.0,4320.0,4475.0,2192.0,2735.0,3687.0,2904.0,3931.0
1687.03,4615.0,3792.0,4108.0,4599.0,3789.0,3929.0,3879.0,4062.0,4396.0,4242.0,2174.0,2747.0,3727.0,2991.0,3797.0
1688.77,4407.0,3703.0,4077.0,4473.0,3505.0,3503.0,3553.0,4071.0,4096.0,4197.0,2128.0,2469.0,3767.0,2894.0,3862.0
1690.52,4619.0,3765.0,3956.0,4276.0,3639.0,3703.0,3501.0,4181.0,3999.0,4051.0,2074.0,2593.0,3825.0,2806.0,3775.0
1692.26,4545.0,3658.0,3919.0,4462.0,3575.0,3669.0,3630.0,4207.0,4124.0,4183.0,2146.0,2775.0,3627.0,2784.0,3854.0
1694.01,4201.0,3641.0,3893.0,4311.0,3472.0,3672.0,3519.0,4033.0,4107.0,3919.0,2055.0,2530.0,3327.0,2671.0,3783.0
1695.75,4597.0,3735.0,3844.0,4300.0,3573.0,3771.0,3572.0,4166.0,4009.0,4171.0,2012.0,2589.0,3750.0,2809.0,3762.0
1697.5,4367.0,3718.0,4029.0,4371.0,3582.0,3361.0,3547.0,3969.0,4199.0,4251.0,1902.0,2424.0,3740.0,2681.0,3694.0
1699.24,4263.0,3516.0,3835.0,4399.0,3314.0,3651.0,3529.0,4143.0,4019.0,3887.0,2097.0,2461.0,3545.0,2829.0,3660.0
1700.98,4391.0,3559.0,3691.0,4200.0,3369.0,3557.0,3605.0,3971.0,3984.0,4027.0,2202.0,2759.0,3655.0,2821.0,3616.0
1702.72,4307.0,3561.0,3943.0,4181.0,3349.0,3627.0,3603.0,3982.0,4164.0,4187.0,1743.0,2328.0,3271.0,2430.0,3606.0
1704.46,4309.0,3499.0,3937.0,4065.0,3379.0,3628.0,3510.0,3812.0,3997.0,3849.0,2271.0,2595.0,3609.0,2802.0,3649.0
1706.2,4234.0,3325.0,3920.0,4190.0,3432.0,3549.0,3510.0,3995.0,3894.0,3832.0,2023.0,2408.0,3339.0,2495.0,3433.0
1707.94,4267.0,3509.0,3821.0,4229.0,3306.0,3730.0,3583.0,3949.0,3882.0,3886.0,1908.0,2532.0,3266.0,2748.0,3827.0
1709.68,4231.0,3755.0,3783.0,4177.0,3475.0,3454.0,3487.0,4031.0,4088.0,3963.0,1841.0,2284.0,3424.0,2705.0,3580.0
1711.42,4456.0,3567.0,3815.0,4195.0,3319.0,3425.0,3254.0,3746.0,3921.0,4019.0,1905.0,2314.0,3527.0,2559.0,3556.0
1713.16,4087.0,3363.0,3735.0,4093.0,3263.0,3530.0,3461.0,3684.0,4003.0,3885.0,1799.0,2431.0,3331.0,2578.0,3584.0
1714.89,3951.0,3345.0,3737.0,3974.0,3225.0,3406.0,3240.0,3758.0,3920.0,3671.0,1895.0,2326.0,3438.0,2455.0,3751.0
1716.63,4124.0,3301.0,3660.0,4105.0,3249.0,3166.0,3203.0,3546.0,3911.0,3849.0,1902.0,2395.0,3524.0,2592.0,3590.0
1718.36,3859.0,3449.0,3683.0,4061.0,3063.0,3444.0,3285.0,3965.0,3818.0,3623.0,1976.0,2389.0,3204.0,2501.0,3559.0
1720.1,4143.0,3335.0,3671.0,4151.0,3389.0,3335.0,3222.0,3737.0,3848.0,3829.0,1874.0,2417.0,3308.0,2519.0,3509.0
1721.83,3938.0,3335.0,3631.0,3817.0,3051.0,3620.0,3348.0,3609.0,3857.0,3837.0,1860.0,2190.0,3282.0,2639.0,3599.0
1723.56,3915.0,3205.0,3583.0,3857.0,3193.0,3274.0,3229.0,3599.0,3821.0,3767.0,1761.0,2079.0,3098.0,2533.0,3481.0
1725.3,4036.0,3450.0,3652.0,4088.0,3082.0,3124.0,3078.0,3457.0,3743.0,3760.0,1707.0,2129.0,3131.0,2532.0,3496.0
1727.03,3941.0,3122.0,3637.0,3780.0,3167.0,3185.0,3095.0,3650.0,3745.0,3525.0,1811.0,2117.0,3097.0,2283.0,3437.0
1728.76,3683.0,3151.0,3519.0,3665.0,3123.0,3167.0,3402.0,3746.0,3545.0,3591.0,1854.0,2317.0,3074.0,2490.0,3288.0
1730.49,3895.0,3356.0,3645.0,3753.0,3169.0,3402.0,3250.0,3715.0,3620.0,3831.0,1669.0,2136.0,3029.0,2392.0,3413.0
1732.22,3883.0,3217.0,3585.0,3819.0,3083.0,3157.0,3243.0,3570.0,3793.0,3579.0,1661.0,2125.0,2978.0,2426.0,3501.0
1733.95,3560.0,3316.0,3344.0,3613.0,3020.0,3181.0,3210.0,3455.0,3684.0,3537.0,1828.0,2174.0,2755.0,2429.0,3323.0
1735.68,3799.0,3247.0,3341.0,3895.0,3022.0,3062.0,3096.0,3353.0,3579.0,3697.0,1764.0,2048.0,2802.0,2285.0,3257.0
1737.4,3701.0,3166.0,3627.0,3771.0,3040.0,3174.0,3082.0,3350.0,3586.0,3763.0,1729.0,2149.0,3183.0,2430.0,3395.0
1739.13,3695.0,3048.0,3421.0,3871.0,3071.0,3179.0,3197.0,3694.0,3747.0,3599.0,1691.0,2148.0,3073.0,2379.0,3228.0
1740.86,3625.0,3205.0,3423.0,3852.0,3067.0,3236.0,3002.0,3477.0,3492.0,3563.0,1803.0,2012.0,3211.0,2205.0,3313.0
1742.58,3647.0,3238.0,3447.0,3791.0,2995.0,3089.0,3052.0,3249.0,3669.0,3438.0,1763.0,2164.0,2989.0,2358.0,3053.0
1744.3,3811.0,3334.0,3333.0,3635.0,2935.0,3012.0,3034.0,3326.0,3594.0,3569.0,1890.0,2135.0,2844.0,2364.0,3184.0
1746.03,3619.0,3161.0,3439.0,3619.0,2899.0,3265.0,3198.0,3604.0,3521.0,3431.0,1795.0,2317.0,3001.0,2373.0,3093.0
1747.75,3479.0,3251.0,3147.0,3651.0,2792.0,3074.0,3002.0,3251.0,3390.0,3499.0,1580.0,2108.0,2921.0,2176.0,3173.0
1749.47,3603.0,3053.0,3397.0,3691.0,2824.0,2955.0,3039.0,3189.0,3407.0,3411.0,1666.0,2110.0,2792.0,2234.0,3198.0
1751.2,3517.0,3165.0,3249.0,3539.0,2908.0,3009.0,3028.0,3137.0,3410.0,3457.0,1760.0,2061.0,2779.0,2152.0,3193.0
1752.92,3650.0,2951.0,3371.0,3647.0,2975.0,3033.0,3000.0,3268.0,3392.0,3439.0,1603.0,2061.0,2817.0,2389.0,3107.0
1754.64,3689.0,3107.0,3457.0,3633.0,3103.0,3015.0,2964.0,3355.0,3414.0,3351.0,1711.0,2014.0,2832.0,2176.0,3231.0
1756.36,3385.0,2898.0,3179.0,3501.0,2870.0,3108.0,2968.0,3279.0,3345.0,3379.0,1653.0,2165.0,2772.0,2304.0,3133.0
1758.08,3448.0,3011.0,3101.0,3547.0,2878.0,2983.0,3098.0,3235.0,3317.0,3427.0,1720.0,2056.0,2688.0,2282.0,3103.0
1759.79,3457.0,3067.0,3129.0,3557.0,2826.0,3005.0,3060.0,3355.0,3371.0,3209.0,1697.0,2047.0,2938.0,2301.0,3001.0
1761.51,3509.0,2979.0,3231.0,3635.0,2877.0,2911.0,3038.0,3409.0,3262.0,3353.0,1670.0,1901.0,2725.0,2239.0,3118.0
1763.23,3741.0,3145.0,3151.0,3655.0,2848.0,2991.0,2848.0,3205.0,3278.0,3401.0,1549.0,2151.0,2500.0,2178.0,3197.0
1764.94,3395.0,3092.0,3413.0,3439.0,2802.0,2768.0,2890.0,3167.0,3490.0,3341.0,1668.0,2180.0,2710.0,2223.0,2884.0
1766.66,3515.0,2999.0,3243.0,3597.0,2894.0,3043.0,2966.0,3226.0,3317.0,3337.0,1608.0,2063.0,2819.0,2312.0,3071.0
1768.38,3367.0,2985.0,3145.0,3495.0,2760.0,2952.0,2959.0,3247.0,3171.0,3291.0,1794.0,1988.0,2845.0,2165.0,3027.0
1770.09,3389.0,2870.0,3173.0,3369.0,3040.0,3197.0,3070.0,3406.0,3399.0,3149.0,1502.0,1913.0,2927.0,2047.0,3111.0
1771.8,3328.0,2924.0,3210.0,3344.0,2717.0,3072.0,2946.0,3385.0,3212.0,3265.0,1583.0,1874.0,2800.0,2207.0,2922.0
1773.52,3481.0,2946.0,3237.0,3519.0,2744.0,2768.0,2854.0,3329.0,3420.0,3339.0,1550.0,1962.0,2729.0,2130.0,2903.0
1775.23,3480.0,2901.0,3251.0,3505.0,2823.0,2921.0,2866.0,3221.0,3197.0,3489.0,1717.0,1965.0,2744.0,2327.0,3093.0
1776.94,3431.0,3009.0,3129.0,3503.0,2883.0,2946.0,2938.0,3263.0,3125.0,3326.0,1352.0,1827.0,2930.0,2044.0,3049.0
1778.65,3320.0,2821.0,3159.0,3275.0,2839.0,2990.0,2863.0,3167.0,3322.0,3184.0,1541.0,1949.0,2800.0,2156.0,2899.0
1780.36,3695.0,2975.0,3401.0,3545.0,2904.0,3150.0,3002.0,3300.0,3234.0,3508.0,1626.0,1917.0,2970.0,2246.0,3103.0
1782.07,3577.0,2848.0,3429.0,3660.0,2812.0,2878.0,2871.0,3253.0,3327.0,3364.0,1440.0,1929.0,2928.0,2110.0,3079.0
1783.78,3409.0,3049.0,3305.0,3429.0,2812.0,3040.0,2986.0,3196.0,3271.0,3224.0,1644.0,1900.0,2697.0,1990.0,2985.0
1785.49,3534.0,3094.0,3220.0,3332.0,2732.0,2834.0,3094.0,3271.0,3355.0,3119.0,1537.0,1868.0,2790.0,2081.0,2942.0
1787.19,3467.0,2892.0,3105.0,3437.0,2835.0,2993.0,3061.0,3296.0,3483.0,3254.0,1666.0,2026.0,2631.0,2174.0,2945.0
1788.9,3561.0,2954.0,3281.0,3516.0,2875.0,2935.0,2846.0,3189.0,3267.0,3310.0,1561.0,1949.0,2698.0,2074.0,3075.0
1790.6,3535.0,3019.0,3265.0,3603.0,2839.0,3022.0,2774.0,3278.0,3335.0,3381.0,1490.0,2068.0,2499.0,2125.0,3087.0
1792.31,3449.0,2977.0,3295.0,3557.0,2852.0,2856.0,2812.0,3372.0,3227.0,3214.0,1509.0,1918.0,2631.0,2013.0,2931.0
1794.01,3273.0,3021.0,3123.0,3327.0,2766.0,2827.0,2934.0,3108.0,3236.0,3163.0,1705.0,1901.0,2652.0,2094.0,3059.0
1795.72,3547.0,2989.0,3209.0,3388.0,2881.0,2936.0,2952.0,3251.0,3373.0,3409.0,1659.0,1800.0,2625.0,2244.0,2941.0
1797.42,3369.0,2818.0,3171.0,3343.0,2716.0,2720.0,2951.0,3179.0,3331.0,3320.0,1726.0,2008.0,2872.0,2269.0,2973.0
1799.12,3332.0,2864.0,3349.0,3251.0,2780.0,2763.0,2912.0,3033.0,3317.0,3337.0,1558.0,1839.0,2764.0,2086.0,3001.0
